Created as New Dataset,Sample 159 By irlear Date Thursday, June 06 2019
cm-1,%T
4000.00,79.21
3999.50,79.24
3999.00,79.26
3998.50,79.28
3998.00,79.30
3997.50,79.32
3997.00,79.34
3996.50,79.36
3996.00,79.39
3995.50,79.41
3995.00,79.44
3994.50,79.46
3994.00,79.48
3993.50,79.49
3993.00,79.51
3992.50,79.53
3992.00,79.55
3991.50,79.58
3991.00,79.60
3990.50,79.63
3990.00,79.65
3989.50,79.68
3989.00,79.70
3988.50,79.72
3988.00,79.74
3987.50,79.76
3987.00,79.79
3986.50,79.82
3986.00,79.85
3985.50,79.88
3985.00,79.90
3984.50,79.92
3984.00,79.93
3983.50,79.95
3983.00,79.96
3982.50,79.98
3982.00,80.00
3981.50,80.02
3981.00,80.04
3980.50,80.06
3980.00,80.08
3979.50,80.10
3979.00,80.12
3978.50,80.15
3978.00,80.17
3977.50,80.19
3977.00,80.21
3976.50,80.23
3976.00,80.25
3975.50,80.27
3975.00,80.29
3974.50,80.30
3974.00,80.33
3973.50,80.35
3973.00,80.37
3972.50,80.39
3972.00,80.40
3971.50,80.42
3971.00,80.44
3970.50,80.46
3970.00,80.48
3969.50,80.50
3969.00,80.52
3968.50,80.54
3968.00,80.56
3967.50,80.57
3967.00,80.59
3966.50,80.61
3966.00,80.63
3965.50,80.65
3965.00,80.66
3964.50,80.68
3964.00,80.69
3963.50,80.71
3963.00,80.73
3962.50,80.75
3962.00,80.77
3961.50,80.79
3961.00,80.80
3960.50,80.82
3960.00,80.83
3959.50,80.84
3959.00,80.86
3958.50,80.87
3958.00,80.89
3957.50,80.90
3957.00,80.92
3956.50,80.93
3956.00,80.94
3955.50,80.95
3955.00,80.95
3954.50,80.96
3954.00,80.98
3953.50,80.99
3953.00,81.00
3952.50,81.00
3952.00,81.00
3951.50,81.00
3951.00,81.01
3950.50,81.03
3950.00,81.04
3949.50,81.05
3949.00,81.07
3948.50,81.08
3948.00,81.09
3947.50,81.10
3947.00,81.10
3946.50,81.10
3946.00,81.10
3945.50,81.10
3945.00,81.10
3944.50,81.09
3944.00,81.10
3943.50,81.11
3943.00,81.13
3942.50,81.15
3942.00,81.17
3941.50,81.18
3941.00,81.19
3940.50,81.20
3940.00,81.21
3939.50,81.22
3939.00,81.23
3938.50,81.24
3938.00,81.25
3937.50,81.26
3937.00,81.27
3936.50,81.28
3936.00,81.29
3935.50,81.30
3935.00,81.30
3934.50,81.30
3934.00,81.31
3933.50,81.32
3933.00,81.33
3932.50,81.34
3932.00,81.34
3931.50,81.34
3931.00,81.35
3930.50,81.36
3930.00,81.37
3929.50,81.37
3929.00,81.37
3928.50,81.37
3928.00,81.35
3927.50,81.33
3927.00,81.31
3926.50,81.30
3926.00,81.30
3925.50,81.32
3925.00,81.35
3924.50,81.37
3924.00,81.38
3923.50,81.37
3923.00,81.36
3922.50,81.34
3922.00,81.32
3921.50,81.32
3921.00,81.32
3920.50,81.32
3920.00,81.32
3919.50,81.31
3919.00,81.31
3918.50,81.32
3918.00,81.33
3917.50,81.33
3917.00,81.32
3916.50,81.30
3916.00,81.28
3915.50,81.27
3915.00,81.26
3914.50,81.25
3914.00,81.24
3913.50,81.23
3913.00,81.21
3912.50,81.19
3912.00,81.18
3911.50,81.17
3911.00,81.16
3910.50,81.15
3910.00,81.13
3909.50,81.11
3909.00,81.09
3908.50,81.06
3908.00,81.03
3907.50,81.00
3907.00,80.97
3906.50,80.96
3906.00,80.97
3905.50,80.99
3905.00,81.01
3904.50,81.00
3904.00,80.96
3903.50,80.93
3903.00,80.92
3902.50,80.90
3902.00,80.87
3901.50,80.82
3901.00,80.78
3900.50,80.76
3900.00,80.76
3899.50,80.75
3899.00,80.74
3898.50,80.73
3898.00,80.71
3897.50,80.70
3897.00,80.68
3896.50,80.66
3896.00,80.64
3895.50,80.62
3895.00,80.61
3894.50,80.59
3894.00,80.57
3893.50,80.56
3893.00,80.56
3892.50,80.57
3892.00,80.60
3891.50,80.59
3891.00,80.56
3890.50,80.52
3890.00,80.50
3889.50,80.50
3889.00,80.48
3888.50,80.46
3888.00,80.42
3887.50,80.40
3887.00,80.40
3886.50,80.43
3886.00,80.45
3885.50,80.44
3885.00,80.42
3884.50,80.41
3884.00,80.40
3883.50,80.38
3883.00,80.35
3882.50,80.31
3882.00,80.26
3881.50,80.24
3881.00,80.25
3880.50,80.27
3880.00,80.27
3879.50,80.28
3879.00,80.28
3878.50,80.28
3878.00,80.27
3877.50,80.25
3877.00,80.21
3876.50,80.17
3876.00,80.12
3875.50,80.09
3875.00,80.09
3874.50,80.11
3874.00,80.11
3873.50,80.09
3873.00,80.07
3872.50,80.04
3872.00,80.02
3871.50,80.00
3871.00,80.01
3870.50,80.03
3870.00,80.01
3869.50,79.94
3869.00,79.89
3868.50,79.86
3868.00,79.83
3867.50,79.79
3867.00,79.75
3866.50,79.71
3866.00,79.69
3865.50,79.68
3865.00,79.65
3864.50,79.59
3864.00,79.53
3863.50,79.48
3863.00,79.43
3862.50,79.38
3862.00,79.31
3861.50,79.24
3861.00,79.18
3860.50,79.12
3860.00,79.06
3859.50,78.99
3859.00,78.91
3858.50,78.83
3858.00,78.75
3857.50,78.67
3857.00,78.57
3856.50,78.48
3856.00,78.41
3855.50,78.36
3855.00,78.26
3854.50,78.13
3854.00,78.03
3853.50,77.95
3853.00,77.87
3852.50,77.76
3852.00,77.63
3851.50,77.51
3851.00,77.43
3850.50,77.34
3850.00,77.24
3849.50,77.12
3849.00,76.98
3848.50,76.86
3848.00,76.74
3847.50,76.62
3847.00,76.49
3846.50,76.37
3846.00,76.23
3845.50,76.09
3845.00,75.95
3844.50,75.80
3844.00,75.64
3843.50,75.49
3843.00,75.35
3842.50,75.23
3842.00,75.11
3841.50,74.99
3841.00,74.86
3840.50,74.73
3840.00,74.61
3839.50,74.50
3839.00,74.41
3838.50,74.28
3838.00,74.12
3837.50,73.98
3837.00,73.89
3836.50,73.83
3836.00,73.76
3835.50,73.64
3835.00,73.50
3834.50,73.37
3834.00,73.27
3833.50,73.20
3833.00,73.13
3832.50,73.07
3832.00,72.99
3831.50,72.91
3831.00,72.84
3830.50,72.78
3830.00,72.73
3829.50,72.67
3829.00,72.60
3828.50,72.53
3828.00,72.48
3827.50,72.43
3827.00,72.39
3826.50,72.36
3826.00,72.32
3825.50,72.28
3825.00,72.24
3824.50,72.20
3824.00,72.15
3823.50,72.09
3823.00,72.03
3822.50,71.97
3822.00,71.98
3821.50,72.03
3821.00,72.02
3820.50,71.96
3820.00,71.91
3819.50,71.87
3819.00,71.82
3818.50,71.75
3818.00,71.68
3817.50,71.62
3817.00,71.58
3816.50,71.53
3816.00,71.45
3815.50,71.37
3815.00,71.32
3814.50,71.28
3814.00,71.22
3813.50,71.15
3813.00,71.07
3812.50,70.98
3812.00,70.90
3811.50,70.81
3811.00,70.73
3810.50,70.64
3810.00,70.55
3809.50,70.46
3809.00,70.37
3808.50,70.28
3808.00,70.20
3807.50,70.13
3807.00,70.03
3806.50,69.92
3806.00,69.84
3805.50,69.78
3805.00,69.70
3804.50,69.60
3804.00,69.49
3803.50,69.40
3803.00,69.31
3802.50,69.24
3802.00,69.16
3801.50,69.03
3801.00,68.91
3800.50,68.83
3800.00,68.76
3799.50,68.69
3799.00,68.60
3798.50,68.49
3798.00,68.37
3797.50,68.24
3797.00,68.11
3796.50,67.96
3796.00,67.83
3795.50,67.71
3795.00,67.59
3794.50,67.47
3794.00,67.33
3793.50,67.17
3793.00,67.02
3792.50,66.85
3792.00,66.68
3791.50,66.51
3791.00,66.33
3790.50,66.14
3790.00,65.95
3789.50,65.74
3789.00,65.54
3788.50,65.34
3788.00,65.14
3787.50,64.94
3787.00,64.73
3786.50,64.53
3786.00,64.32
3785.50,64.11
3785.00,63.87
3784.50,63.64
3784.00,63.43
3783.50,63.24
3783.00,63.05
3782.50,62.86
3782.00,62.66
3781.50,62.47
3781.00,62.29
3780.50,62.09
3780.00,61.89
3779.50,61.68
3779.00,61.48
3778.50,61.32
3778.00,61.16
3777.50,61.01
3777.00,60.84
3776.50,60.67
3776.00,60.51
3775.50,60.35
3775.00,60.20
3774.50,60.04
3774.00,59.89
3773.50,59.74
3773.00,59.60
3772.50,59.47
3772.00,59.34
3771.50,59.22
3771.00,59.10
3770.50,58.97
3770.00,58.83
3769.50,58.70
3769.00,58.60
3768.50,58.52
3768.00,58.43
3767.50,58.34
3767.00,58.25
3766.50,58.17
3766.00,58.10
3765.50,58.04
3765.00,57.99
3764.50,57.95
3764.00,57.91
3763.50,57.87
3763.00,57.83
3762.50,57.79
3762.00,57.74
3761.50,57.70
3761.00,57.66
3760.50,57.65
3760.00,57.66
3759.50,57.68
3759.00,57.68
3758.50,57.67
3758.00,57.67
3757.50,57.68
3757.00,57.70
3756.50,57.73
3756.00,57.76
3755.50,57.78
3755.00,57.80
3754.50,57.80
3754.00,57.80
3753.50,57.82
3753.00,57.89
3752.50,58.02
3752.00,58.15
3751.50,58.24
3751.00,58.32
3750.50,58.41
3750.00,58.53
3749.50,58.64
3749.00,58.71
3748.50,58.78
3748.00,58.85
3747.50,58.91
3747.00,58.96
3746.50,58.99
3746.00,58.99
3745.50,59.02
3745.00,59.21
3744.50,59.50
3744.00,59.69
3743.50,59.80
3743.00,59.89
3742.50,59.97
3742.00,60.08
3741.50,60.19
3741.00,60.30
3740.50,60.39
3740.00,60.46
3739.50,60.51
3739.00,60.56
3738.50,60.61
3738.00,60.65
3737.50,60.67
3737.00,60.66
3736.50,60.64
3736.00,60.62
3735.50,60.57
3735.00,60.50
3734.50,60.45
3734.00,60.42
3733.50,60.39
3733.00,60.32
3732.50,60.20
3732.00,60.03
3731.50,59.87
3731.00,59.74
3730.50,59.61
3730.00,59.46
3729.50,59.29
3729.00,59.12
3728.50,58.96
3728.00,58.78
3727.50,58.57
3727.00,58.33
3726.50,58.07
3726.00,57.82
3725.50,57.59
3725.00,57.37
3724.50,57.18
3724.00,56.99
3723.50,56.79
3723.00,56.55
3722.50,56.28
3722.00,56.02
3721.50,55.82
3721.00,55.67
3720.50,55.51
3720.00,55.33
3719.50,55.11
3719.00,54.90
3718.50,54.70
3718.00,54.51
3717.50,54.34
3717.00,54.15
3716.50,53.96
3716.00,53.75
3715.50,53.53
3715.00,53.31
3714.50,53.10
3714.00,52.90
3713.50,52.69
3713.00,52.43
3712.50,52.10
3712.00,51.77
3711.50,51.52
3711.00,51.34
3710.50,51.15
3710.00,50.90
3709.50,50.61
3709.00,50.35
3708.50,50.15
3708.00,49.99
3707.50,49.82
3707.00,49.63
3706.50,49.44
3706.00,49.26
3705.50,49.09
3705.00,48.93
3704.50,48.79
3704.00,48.66
3703.50,48.53
3703.00,48.40
3702.50,48.27
3702.00,48.17
3701.50,48.10
3701.00,48.06
3700.50,48.05
3700.00,48.05
3699.50,48.05
3699.00,48.06
3698.50,48.09
3698.00,48.12
3697.50,48.18
3697.00,48.25
3696.50,48.33
3696.00,48.42
3695.50,48.51
3695.00,48.61
3694.50,48.70
3694.00,48.80
3693.50,48.90
3693.00,48.99
3692.50,49.10
3692.00,49.26
3691.50,49.47
3691.00,49.68
3690.50,49.83
3690.00,49.95
3689.50,50.11
3689.00,50.31
3688.50,50.50
3688.00,50.63
3687.50,50.71
3687.00,50.79
3686.50,50.87
3686.00,50.96
3685.50,51.06
3685.00,51.16
3684.50,51.25
3684.00,51.33
3683.50,51.39
3683.00,51.45
3682.50,51.51
3682.00,51.55
3681.50,51.59
3681.00,51.62
3680.50,51.64
3680.00,51.67
3679.50,51.69
3679.00,51.70
3678.50,51.69
3678.00,51.68
3677.50,51.65
3677.00,51.61
3676.50,51.57
3676.00,51.53
3675.50,51.43
3675.00,51.31
3674.50,51.25
3674.00,51.21
3673.50,51.18
3673.00,51.13
3672.50,51.06
3672.00,50.96
3671.50,50.83
3671.00,50.67
3670.50,50.51
3670.00,50.37
3669.50,50.24
3669.00,50.11
3668.50,49.98
3668.00,49.85
3667.50,49.74
3667.00,49.62
3666.50,49.48
3666.00,49.32
3665.50,49.15
3665.00,48.98
3664.50,48.81
3664.00,48.64
3663.50,48.48
3663.00,48.31
3662.50,48.15
3662.00,47.98
3661.50,47.82
3661.00,47.64
3660.50,47.46
3660.00,47.27
3659.50,47.07
3659.00,46.89
3658.50,46.72
3658.00,46.56
3657.50,46.38
3657.00,46.15
3656.50,45.87
3656.00,45.62
3655.50,45.46
3655.00,45.33
3654.50,45.22
3654.00,45.08
3653.50,44.94
3653.00,44.80
3652.50,44.67
3652.00,44.53
3651.50,44.38
3651.00,44.23
3650.50,44.07
3650.00,43.91
3649.50,43.75
3649.00,43.63
3648.50,43.53
3648.00,43.43
3647.50,43.32
3647.00,43.23
3646.50,43.18
3646.00,43.16
3645.50,43.15
3645.00,43.13
3644.50,43.10
3644.00,43.07
3643.50,43.04
3643.00,43.02
3642.50,43.00
3642.00,42.99
3641.50,42.99
3641.00,43.00
3640.50,43.02
3640.00,43.04
3639.50,43.07
3639.00,43.11
3638.50,43.16
3638.00,43.21
3637.50,43.27
3637.00,43.33
3636.50,43.39
3636.00,43.45
3635.50,43.52
3635.00,43.59
3634.50,43.66
3634.00,43.75
3633.50,43.84
3633.00,43.93
3632.50,44.01
3632.00,44.10
3631.50,44.18
3631.00,44.26
3630.50,44.33
3630.00,44.41
3629.50,44.51
3629.00,44.58
3628.50,44.64
3628.00,44.72
3627.50,44.80
3627.00,44.87
3626.50,44.94
3626.00,45.00
3625.50,45.05
3625.00,45.11
3624.50,45.15
3624.00,45.19
3623.50,45.22
3623.00,45.25
3622.50,45.28
3622.00,45.30
3621.50,45.32
3621.00,45.33
3620.50,45.32
3620.00,45.31
3619.50,45.29
3619.00,45.28
3618.50,45.27
3618.00,45.26
3617.50,45.25
3617.00,45.25
3616.50,45.26
3616.00,45.27
3615.50,45.25
3615.00,45.20
3614.50,45.16
3614.00,45.13
3613.50,45.09
3613.00,45.03
3612.50,44.96
3612.00,44.91
3611.50,44.90
3611.00,44.91
3610.50,44.90
3610.00,44.84
3609.50,44.75
3609.00,44.65
3608.50,44.58
3608.00,44.53
3607.50,44.48
3607.00,44.41
3606.50,44.35
3606.00,44.32
3605.50,44.30
3605.00,44.26
3604.50,44.21
3604.00,44.15
3603.50,44.09
3603.00,44.03
3602.50,43.97
3602.00,43.91
3601.50,43.85
3601.00,43.78
3600.50,43.72
3600.00,43.67
3599.50,43.61
3599.00,43.54
3598.50,43.46
3598.00,43.39
3597.50,43.33
3597.00,43.29
3596.50,43.23
3596.00,43.16
3595.50,43.09
3595.00,43.04
3594.50,43.01
3594.00,42.98
3593.50,42.95
3593.00,42.91
3592.50,42.88
3592.00,42.86
3591.50,42.85
3591.00,42.84
3590.50,42.83
3590.00,42.82
3589.50,42.79
3589.00,42.75
3588.50,42.70
3588.00,42.68
3587.50,42.66
3587.00,42.63
3586.50,42.59
3586.00,42.58
3585.50,42.59
3585.00,42.62
3584.50,42.65
3584.00,42.69
3583.50,42.75
3583.00,42.82
3582.50,42.90
3582.00,42.98
3581.50,43.06
3581.00,43.13
3580.50,43.19
3580.00,43.25
3579.50,43.31
3579.00,43.37
3578.50,43.43
3578.00,43.49
3577.50,43.55
3577.00,43.60
3576.50,43.65
3576.00,43.70
3575.50,43.75
3575.00,43.80
3574.50,43.84
3574.00,43.89
3573.50,43.93
3573.00,43.98
3572.50,44.03
3572.00,44.09
3571.50,44.15
3571.00,44.20
3570.50,44.26
3570.00,44.31
3569.50,44.36
3569.00,44.40
3568.50,44.43
3568.00,44.45
3567.50,44.48
3567.00,44.52
3566.50,44.55
3566.00,44.59
3565.50,44.64
3565.00,44.71
3564.50,44.79
3564.00,44.84
3563.50,44.89
3563.00,44.93
3562.50,44.97
3562.00,45.01
3561.50,45.05
3561.00,45.07
3560.50,45.08
3560.00,45.10
3559.50,45.12
3559.00,45.15
3558.50,45.18
3558.00,45.21
3557.50,45.23
3557.00,45.24
3556.50,45.26
3556.00,45.27
3555.50,45.29
3555.00,45.31
3554.50,45.32
3554.00,45.33
3553.50,45.34
3553.00,45.35
3552.50,45.35
3552.00,45.33
3551.50,45.33
3551.00,45.33
3550.50,45.34
3550.00,45.35
3549.50,45.35
3549.00,45.36
3548.50,45.37
3548.00,45.37
3547.50,45.36
3547.00,45.35
3546.50,45.35
3546.00,45.35
3545.50,45.33
3545.00,45.31
3544.50,45.30
3544.00,45.29
3543.50,45.28
3543.00,45.27
3542.50,45.26
3542.00,45.24
3541.50,45.23
3541.00,45.21
3540.50,45.20
3540.00,45.18
3539.50,45.17
3539.00,45.16
3538.50,45.17
3538.00,45.18
3537.50,45.18
3537.00,45.16
3536.50,45.13
3536.00,45.09
3535.50,45.07
3535.00,45.07
3534.50,45.06
3534.00,45.06
3533.50,45.05
3533.00,45.04
3532.50,45.04
3532.00,45.03
3531.50,45.03
3531.00,45.02
3530.50,45.02
3530.00,45.02
3529.50,45.02
3529.00,45.01
3528.50,45.00
3528.00,44.99
3527.50,44.98
3527.00,44.98
3526.50,44.97
3526.00,44.98
3525.50,45.00
3525.00,45.01
3524.50,45.02
3524.00,45.02
3523.50,44.99
3523.00,44.97
3522.50,44.95
3522.00,44.94
3521.50,44.95
3521.00,44.96
3520.50,44.96
3520.00,44.97
3519.50,44.97
3519.00,44.97
3518.50,44.98
3518.00,44.98
3517.50,44.99
3517.00,45.00
3516.50,45.01
3516.00,45.02
3515.50,45.04
3515.00,45.06
3514.50,45.07
3514.00,45.09
3513.50,45.10
3513.00,45.10
3512.50,45.11
3512.00,45.12
3511.50,45.13
3511.00,45.15
3510.50,45.16
3510.00,45.16
3509.50,45.15
3509.00,45.15
3508.50,45.16
3508.00,45.19
3507.50,45.21
3507.00,45.24
3506.50,45.26
3506.00,45.28
3505.50,45.31
3505.00,45.33
3504.50,45.36
3504.00,45.38
3503.50,45.38
3503.00,45.38
3502.50,45.38
3502.00,45.38
3501.50,45.38
3501.00,45.40
3500.50,45.41
3500.00,45.43
3499.50,45.45
3499.00,45.47
3498.50,45.49
3498.00,45.51
3497.50,45.53
3497.00,45.53
3496.50,45.54
3496.00,45.55
3495.50,45.56
3495.00,45.57
3494.50,45.59
3494.00,45.60
3493.50,45.61
3493.00,45.63
3492.50,45.64
3492.00,45.66
3491.50,45.67
3491.00,45.68
3490.50,45.70
3490.00,45.72
3489.50,45.75
3489.00,45.77
3488.50,45.79
3488.00,45.80
3487.50,45.81
3487.00,45.83
3486.50,45.85
3486.00,45.86
3485.50,45.87
3485.00,45.88
3484.50,45.90
3484.00,45.92
3483.50,45.95
3483.00,45.97
3482.50,45.98
3482.00,46.00
3481.50,46.02
3481.00,46.04
3480.50,46.07
3480.00,46.08
3479.50,46.10
3479.00,46.11
3478.50,46.13
3478.00,46.14
3477.50,46.16
3477.00,46.19
3476.50,46.21
3476.00,46.23
3475.50,46.25
3475.00,46.26
3474.50,46.28
3474.00,46.29
3473.50,46.32
3473.00,46.34
3472.50,46.37
3472.00,46.40
3471.50,46.43
3471.00,46.46
3470.50,46.49
3470.00,46.52
3469.50,46.54
3469.00,46.57
3468.50,46.59
3468.00,46.62
3467.50,46.63
3467.00,46.65
3466.50,46.66
3466.00,46.67
3465.50,46.69
3465.00,46.72
3464.50,46.74
3464.00,46.77
3463.50,46.79
3463.00,46.81
3462.50,46.83
3462.00,46.86
3461.50,46.89
3461.00,46.92
3460.50,46.94
3460.00,46.96
3459.50,46.98
3459.00,47.00
3458.50,47.02
3458.00,47.04
3457.50,47.06
3457.00,47.09
3456.50,47.12
3456.00,47.14
3455.50,47.17
3455.00,47.20
3454.50,47.22
3454.00,47.25
3453.50,47.28
3453.00,47.30
3452.50,47.33
3452.00,47.36
3451.50,47.39
3451.00,47.42
3450.50,47.46
3450.00,47.49
3449.50,47.53
3449.00,47.58
3448.50,47.62
3448.00,47.65
3447.50,47.66
3447.00,47.66
3446.50,47.68
3446.00,47.71
3445.50,47.75
3445.00,47.79
3444.50,47.83
3444.00,47.87
3443.50,47.90
3443.00,47.92
3442.50,47.94
3442.00,47.96
3441.50,48.00
3441.00,48.03
3440.50,48.07
3440.00,48.10
3439.50,48.14
3439.00,48.18
3438.50,48.22
3438.00,48.25
3437.50,48.29
3437.00,48.32
3436.50,48.35
3436.00,48.38
3435.50,48.41
3435.00,48.44
3434.50,48.47
3434.00,48.49
3433.50,48.52
3433.00,48.55
3432.50,48.58
3432.00,48.61
3431.50,48.64
3431.00,48.67
3430.50,48.69
3430.00,48.72
3429.50,48.75
3429.00,48.77
3428.50,48.80
3428.00,48.82
3427.50,48.84
3427.00,48.86
3426.50,48.89
3426.00,48.91
3425.50,48.94
3425.00,48.96
3424.50,48.99
3424.00,49.02
3423.50,49.05
3423.00,49.08
3422.50,49.11
3422.00,49.15
3421.50,49.18
3421.00,49.20
3420.50,49.22
3420.00,49.23
3419.50,49.25
3419.00,49.28
3418.50,49.31
3418.00,49.34
3417.50,49.36
3417.00,49.39
3416.50,49.42
3416.00,49.45
3415.50,49.49
3415.00,49.52
3414.50,49.56
3414.00,49.60
3413.50,49.63
3413.00,49.65
3412.50,49.68
3412.00,49.70
3411.50,49.73
3411.00,49.76
3410.50,49.80
3410.00,49.83
3409.50,49.87
3409.00,49.89
3408.50,49.92
3408.00,49.95
3407.50,49.97
3407.00,50.01
3406.50,50.04
3406.00,50.07
3405.50,50.10
3405.00,50.14
3404.50,50.18
3404.00,50.21
3403.50,50.25
3403.00,50.29
3402.50,50.33
3402.00,50.36
3401.50,50.39
3401.00,50.42
3400.50,50.46
3400.00,50.49
3399.50,50.52
3399.00,50.55
3398.50,50.58
3398.00,50.61
3397.50,50.63
3397.00,50.65
3396.50,50.68
3396.00,50.72
3395.50,50.76
3395.00,50.80
3394.50,50.84
3394.00,50.88
3393.50,50.91
3393.00,50.94
3392.50,50.96
3392.00,50.99
3391.50,51.02
3391.00,51.05
3390.50,51.08
3390.00,51.10
3389.50,51.13
3389.00,51.16
3388.50,51.19
3388.00,51.22
3387.50,51.25
3387.00,51.28
3386.50,51.32
3386.00,51.35
3385.50,51.38
3385.00,51.41
3384.50,51.44
3384.00,51.47
3383.50,51.51
3383.00,51.54
3382.50,51.58
3382.00,51.62
3381.50,51.66
3381.00,51.69
3380.50,51.73
3380.00,51.76
3379.50,51.79
3379.00,51.82
3378.50,51.85
3378.00,51.89
3377.50,51.92
3377.00,51.95
3376.50,51.98
3376.00,52.01
3375.50,52.04
3375.00,52.07
3374.50,52.10
3374.00,52.13
3373.50,52.17
3373.00,52.20
3372.50,52.24
3372.00,52.28
3371.50,52.32
3371.00,52.35
3370.50,52.39
3370.00,52.42
3369.50,52.45
3369.00,52.48
3368.50,52.52
3368.00,52.55
3367.50,52.57
3367.00,52.60
3366.50,52.63
3366.00,52.65
3365.50,52.67
3365.00,52.69
3364.50,52.72
3364.00,52.75
3363.50,52.78
3363.00,52.81
3362.50,52.84
3362.00,52.88
3361.50,52.91
3361.00,52.94
3360.50,52.97
3360.00,53.00
3359.50,53.02
3359.00,53.05
3358.50,53.07
3358.00,53.10
3357.50,53.13
3357.00,53.16
3356.50,53.19
3356.00,53.22
3355.50,53.25
3355.00,53.29
3354.50,53.32
3354.00,53.36
3353.50,53.40
3353.00,53.44
3352.50,53.48
3352.00,53.52
3351.50,53.56
3351.00,53.59
3350.50,53.62
3350.00,53.65
3349.50,53.68
3349.00,53.72
3348.50,53.75
3348.00,53.78
3347.50,53.82
3347.00,53.86
3346.50,53.90
3346.00,53.94
3345.50,53.99
3345.00,54.03
3344.50,54.08
3344.00,54.13
3343.50,54.17
3343.00,54.21
3342.50,54.25
3342.00,54.29
3341.50,54.33
3341.00,54.38
3340.50,54.42
3340.00,54.47
3339.50,54.51
3339.00,54.55
3338.50,54.60
3338.00,54.64
3337.50,54.67
3337.00,54.71
3336.50,54.74
3336.00,54.78
3335.50,54.82
3335.00,54.85
3334.50,54.89
3334.00,54.93
3333.50,54.97
3333.00,55.01
3332.50,55.05
3332.00,55.09
3331.50,55.13
3331.00,55.17
3330.50,55.20
3330.00,55.24
3329.50,55.28
3329.00,55.32
3328.50,55.36
3328.00,55.40
3327.50,55.45
3327.00,55.49
3326.50,55.53
3326.00,55.57
3325.50,55.60
3325.00,55.63
3324.50,55.67
3324.00,55.70
3323.50,55.74
3323.00,55.78
3322.50,55.82
3322.00,55.85
3321.50,55.89
3321.00,55.94
3320.50,55.98
3320.00,56.02
3319.50,56.06
3319.00,56.10
3318.50,56.14
3318.00,56.19
3317.50,56.23
3317.00,56.28
3316.50,56.32
3316.00,56.37
3315.50,56.42
3315.00,56.47
3314.50,56.52
3314.00,56.57
3313.50,56.61
3313.00,56.65
3312.50,56.70
3312.00,56.74
3311.50,56.79
3311.00,56.84
3310.50,56.89
3310.00,56.94
3309.50,56.99
3309.00,57.03
3308.50,57.07
3308.00,57.11
3307.50,57.15
3307.00,57.20
3306.50,57.24
3306.00,57.28
3305.50,57.31
3305.00,57.35
3304.50,57.39
3304.00,57.42
3303.50,57.45
3303.00,57.48
3302.50,57.52
3302.00,57.55
3301.50,57.58
3301.00,57.62
3300.50,57.65
3300.00,57.68
3299.50,57.72
3299.00,57.76
3298.50,57.79
3298.00,57.83
3297.50,57.86
3297.00,57.89
3296.50,57.93
3296.00,57.96
3295.50,57.99
3295.00,58.02
3294.50,58.05
3294.00,58.08
3293.50,58.11
3293.00,58.14
3292.50,58.17
3292.00,58.20
3291.50,58.22
3291.00,58.25
3290.50,58.28
3290.00,58.30
3289.50,58.33
3289.00,58.36
3288.50,58.39
3288.00,58.42
3287.50,58.44
3287.00,58.47
3286.50,58.50
3286.00,58.53
3285.50,58.56
3285.00,58.59
3284.50,58.62
3284.00,58.64
3283.50,58.67
3283.00,58.70
3282.50,58.73
3282.00,58.75
3281.50,58.78
3281.00,58.81
3280.50,58.84
3280.00,58.86
3279.50,58.88
3279.00,58.91
3278.50,58.93
3278.00,58.96
3277.50,58.99
3277.00,59.02
3276.50,59.04
3276.00,59.06
3275.50,59.09
3275.00,59.12
3274.50,59.14
3274.00,59.16
3273.50,59.17
3273.00,59.19
3272.50,59.21
3272.00,59.23
3271.50,59.25
3271.00,59.27
3270.50,59.28
3270.00,59.30
3269.50,59.31
3269.00,59.32
3268.50,59.34
3268.00,59.35
3267.50,59.37
3267.00,59.39
3266.50,59.40
3266.00,59.41
3265.50,59.43
3265.00,59.44
3264.50,59.46
3264.00,59.47
3263.50,59.48
3263.00,59.50
3262.50,59.51
3262.00,59.53
3261.50,59.54
3261.00,59.55
3260.50,59.56
3260.00,59.57
3259.50,59.59
3259.00,59.60
3258.50,59.62
3258.00,59.63
3257.50,59.65
3257.00,59.66
3256.50,59.68
3256.00,59.69
3255.50,59.70
3255.00,59.71
3254.50,59.72
3254.00,59.73
3253.50,59.74
3253.00,59.75
3252.50,59.76
3252.00,59.77
3251.50,59.78
3251.00,59.79
3250.50,59.80
3250.00,59.81
3249.50,59.83
3249.00,59.84
3248.50,59.86
3248.00,59.87
3247.50,59.88
3247.00,59.89
3246.50,59.90
3246.00,59.91
3245.50,59.92
3245.00,59.92
3244.50,59.92
3244.00,59.92
3243.50,59.93
3243.00,59.93
3242.50,59.94
3242.00,59.95
3241.50,59.95
3241.00,59.96
3240.50,59.96
3240.00,59.97
3239.50,59.97
3239.00,59.97
3238.50,59.98
3238.00,59.98
3237.50,59.98
3237.00,59.98
3236.50,59.98
3236.00,59.98
3235.50,59.99
3235.00,59.99
3234.50,60.00
3234.00,60.00
3233.50,60.00
3233.00,60.00
3232.50,60.00
3232.00,59.99
3231.50,59.99
3231.00,59.99
3230.50,59.98
3230.00,59.98
3229.50,59.98
3229.00,59.98
3228.50,59.98
3228.00,59.98
3227.50,59.98
3227.00,59.98
3226.50,59.98
3226.00,59.98
3225.50,59.98
3225.00,59.98
3224.50,59.99
3224.00,59.99
3223.50,60.00
3223.00,60.00
3222.50,60.01
3222.00,60.01
3221.50,60.02
3221.00,60.03
3220.50,60.04
3220.00,60.04
3219.50,60.05
3219.00,60.05
3218.50,60.06
3218.00,60.06
3217.50,60.07
3217.00,60.07
3216.50,60.08
3216.00,60.08
3215.50,60.09
3215.00,60.10
3214.50,60.10
3214.00,60.10
3213.50,60.09
3213.00,60.09
3212.50,60.09
3212.00,60.09
3211.50,60.09
3211.00,60.09
3210.50,60.09
3210.00,60.09
3209.50,60.08
3209.00,60.08
3208.50,60.07
3208.00,60.06
3207.50,60.06
3207.00,60.05
3206.50,60.04
3206.00,60.03
3205.50,60.02
3205.00,60.01
3204.50,60.00
3204.00,59.99
3203.50,59.97
3203.00,59.96
3202.50,59.95
3202.00,59.94
3201.50,59.92
3201.00,59.91
3200.50,59.89
3200.00,59.88
3199.50,59.87
3199.00,59.86
3198.50,59.84
3198.00,59.82
3197.50,59.80
3197.00,59.78
3196.50,59.75
3196.00,59.73
3195.50,59.71
3195.00,59.69
3194.50,59.66
3194.00,59.63
3193.50,59.60
3193.00,59.57
3192.50,59.53
3192.00,59.50
3191.50,59.46
3191.00,59.43
3190.50,59.39
3190.00,59.34
3189.50,59.30
3189.00,59.26
3188.50,59.22
3188.00,59.18
3187.50,59.15
3187.00,59.13
3186.50,59.11
3186.00,59.10
3185.50,59.09
3185.00,59.10
3184.50,59.11
3184.00,59.13
3183.50,59.15
3183.00,59.18
3182.50,59.21
3182.00,59.25
3181.50,59.29
3181.00,59.32
3180.50,59.36
3180.00,59.39
3179.50,59.42
3179.00,59.44
3178.50,59.46
3178.00,59.47
3177.50,59.48
3177.00,59.49
3176.50,59.49
3176.00,59.49
3175.50,59.49
3175.00,59.49
3174.50,59.48
3174.00,59.47
3173.50,59.46
3173.00,59.44
3172.50,59.43
3172.00,59.41
3171.50,59.39
3171.00,59.37
3170.50,59.35
3170.00,59.32
3169.50,59.30
3169.00,59.27
3168.50,59.24
3168.00,59.21
3167.50,59.17
3167.00,59.14
3166.50,59.10
3166.00,59.06
3165.50,59.02
3165.00,58.98
3164.50,58.94
3164.00,58.89
3163.50,58.85
3163.00,58.80
3162.50,58.76
3162.00,58.71
3161.50,58.66
3161.00,58.60
3160.50,58.55
3160.00,58.49
3159.50,58.44
3159.00,58.38
3158.50,58.32
3158.00,58.26
3157.50,58.20
3157.00,58.14
3156.50,58.07
3156.00,58.01
3155.50,57.94
3155.00,57.88
3154.50,57.81
3154.00,57.74
3153.50,57.67
3153.00,57.59
3152.50,57.51
3152.00,57.43
3151.50,57.34
3151.00,57.26
3150.50,57.17
3150.00,57.08
3149.50,56.99
3149.00,56.90
3148.50,56.81
3148.00,56.71
3147.50,56.62
3147.00,56.52
3146.50,56.42
3146.00,56.32
3145.50,56.22
3145.00,56.12
3144.50,56.01
3144.00,55.90
3143.50,55.79
3143.00,55.68
3142.50,55.56
3142.00,55.44
3141.50,55.32
3141.00,55.21
3140.50,55.08
3140.00,54.96
3139.50,54.83
3139.00,54.69
3138.50,54.55
3138.00,54.41
3137.50,54.26
3137.00,54.12
3136.50,53.97
3136.00,53.82
3135.50,53.68
3135.00,53.53
3134.50,53.38
3134.00,53.23
3133.50,53.08
3133.00,52.92
3132.50,52.76
3132.00,52.61
3131.50,52.45
3131.00,52.30
3130.50,52.15
3130.00,51.99
3129.50,51.83
3129.00,51.67
3128.50,51.51
3128.00,51.35
3127.50,51.19
3127.00,51.04
3126.50,50.88
3126.00,50.73
3125.50,50.58
3125.00,50.43
3124.50,50.29
3124.00,50.15
3123.50,50.01
3123.00,49.88
3122.50,49.75
3122.00,49.62
3121.50,49.50
3121.00,49.37
3120.50,49.26
3120.00,49.14
3119.50,49.03
3119.00,48.92
3118.50,48.81
3118.00,48.71
3117.50,48.61
3117.00,48.52
3116.50,48.43
3116.00,48.34
3115.50,48.25
3115.00,48.16
3114.50,48.08
3114.00,48.01
3113.50,47.94
3113.00,47.87
3112.50,47.81
3112.00,47.75
3111.50,47.70
3111.00,47.66
3110.50,47.62
3110.00,47.58
3109.50,47.55
3109.00,47.51
3108.50,47.48
3108.00,47.45
3107.50,47.42
3107.00,47.39
3106.50,47.37
3106.00,47.34
3105.50,47.33
3105.00,47.32
3104.50,47.31
3104.00,47.30
3103.50,47.30
3103.00,47.29
3102.50,47.29
3102.00,47.29
3101.50,47.30
3101.00,47.30
3100.50,47.30
3100.00,47.29
3099.50,47.28
3099.00,47.27
3098.50,47.27
3098.00,47.26
3097.50,47.26
3097.00,47.26
3096.50,47.26
3096.00,47.25
3095.50,47.25
3095.00,47.24
3094.50,47.23
3094.00,47.22
3093.50,47.21
3093.00,47.21
3092.50,47.20
3092.00,47.18
3091.50,47.17
3091.00,47.16
3090.50,47.14
3090.00,47.11
3089.50,47.08
3089.00,47.05
3088.50,47.02
3088.00,46.99
3087.50,46.95
3087.00,46.92
3086.50,46.88
3086.00,46.84
3085.50,46.80
3085.00,46.76
3084.50,46.71
3084.00,46.66
3083.50,46.60
3083.00,46.55
3082.50,46.49
3082.00,46.43
3081.50,46.37
3081.00,46.30
3080.50,46.24
3080.00,46.17
3079.50,46.09
3079.00,46.02
3078.50,45.94
3078.00,45.85
3077.50,45.76
3077.00,45.67
3076.50,45.57
3076.00,45.47
3075.50,45.36
3075.00,45.26
3074.50,45.15
3074.00,45.03
3073.50,44.92
3073.00,44.80
3072.50,44.67
3072.00,44.54
3071.50,44.40
3071.00,44.26
3070.50,44.11
3070.00,43.95
3069.50,43.79
3069.00,43.62
3068.50,43.45
3068.00,43.26
3067.50,43.06
3067.00,42.84
3066.50,42.61
3066.00,42.37
3065.50,42.12
3065.00,41.86
3064.50,41.58
3064.00,41.29
3063.50,40.98
3063.00,40.66
3062.50,40.33
3062.00,39.98
3061.50,39.62
3061.00,39.24
3060.50,38.86
3060.00,38.46
3059.50,38.07
3059.00,37.68
3058.50,37.29
3058.00,36.91
3057.50,36.54
3057.00,36.19
3056.50,35.85
3056.00,35.55
3055.50,35.29
3055.00,35.08
3054.50,34.90
3054.00,34.78
3053.50,34.71
3053.00,34.70
3052.50,34.76
3052.00,34.88
3051.50,35.06
3051.00,35.30
3050.50,35.59
3050.00,35.93
3049.50,36.31
3049.00,36.72
3048.50,37.15
3048.00,37.57
3047.50,37.99
3047.00,38.40
3046.50,38.78
3046.00,39.14
3045.50,39.47
3045.00,39.76
3044.50,40.03
3044.00,40.26
3043.50,40.48
3043.00,40.66
3042.50,40.83
3042.00,40.97
3041.50,41.10
3041.00,41.21
3040.50,41.30
3040.00,41.38
3039.50,41.45
3039.00,41.51
3038.50,41.56
3038.00,41.61
3037.50,41.65
3037.00,41.68
3036.50,41.71
3036.00,41.73
3035.50,41.74
3035.00,41.74
3034.50,41.73
3034.00,41.71
3033.50,41.68
3033.00,41.64
3032.50,41.59
3032.00,41.54
3031.50,41.48
3031.00,41.41
3030.50,41.33
3030.00,41.23
3029.50,41.12
3029.00,41.01
3028.50,40.89
3028.00,40.75
3027.50,40.61
3027.00,40.46
3026.50,40.30
3026.00,40.12
3025.50,39.93
3025.00,39.72
3024.50,39.50
3024.00,39.26
3023.50,39.01
3023.00,38.74
3022.50,38.47
3022.00,38.18
3021.50,37.90
3021.00,37.60
3020.50,37.30
3020.00,37.00
3019.50,36.70
3019.00,36.39
3018.50,36.09
3018.00,35.81
3017.50,35.53
3017.00,35.27
3016.50,35.03
3016.00,34.79
3015.50,34.57
3015.00,34.37
3014.50,34.18
3014.00,33.99
3013.50,33.81
3013.00,33.63
3012.50,33.45
3012.00,33.27
3011.50,33.08
3011.00,32.88
3010.50,32.66
3010.00,32.43
3009.50,32.18
3009.00,31.91
3008.50,31.63
3008.00,31.33
3007.50,31.01
3007.00,30.67
3006.50,30.31
3006.00,29.94
3005.50,29.55
3005.00,29.14
3004.50,28.71
3004.00,28.26
3003.50,27.79
3003.00,27.31
3002.50,26.81
3002.00,26.29
3001.50,25.77
3001.00,25.22
3000.50,24.66
3000.00,24.09
2999.50,23.51
2999.00,22.91
2998.50,22.30
2998.00,21.67
2997.50,21.03
2997.00,20.37
2996.50,19.70
2996.00,19.01
2995.50,18.32
2995.00,17.62
2994.50,16.92
2994.00,16.20
2993.50,15.48
2993.00,14.76
2992.50,14.03
2992.00,13.29
2991.50,12.56
2991.00,11.83
2990.50,11.09
2990.00,10.37
2989.50,9.65
2989.00,8.94
2988.50,8.24
2988.00,7.56
2987.50,6.89
2987.00,6.25
2986.50,5.63
2986.00,5.04
2985.50,4.48
2985.00,3.95
2984.50,3.45
2984.00,2.99
2983.50,2.56
2983.00,2.18
2982.50,1.83
2982.00,1.51
2981.50,1.23
2981.00,0.99
2980.50,0.77
2980.00,0.59
2979.50,0.44
2979.00,0.32
2978.50,0.22
2978.00,0.14
2977.50,0.08
2977.00,0.04
2976.50,0.02
2976.00,0.01
2975.50,0.00
2975.00,-0.00
2974.50,0.01
2974.00,0.02
2973.50,0.03
2973.00,0.03
2972.50,0.04
2972.00,0.06
2971.50,0.06
2971.00,0.07
2970.50,0.07
2970.00,0.08
2969.50,0.08
2969.00,0.07
2968.50,0.07
2968.00,0.08
2967.50,0.08
2967.00,0.07
2966.50,0.08
2966.00,0.08
2965.50,0.08
2965.00,0.07
2964.50,0.07
2964.00,0.07
2963.50,0.06
2963.00,0.05
2962.50,0.05
2962.00,0.06
2961.50,0.06
2961.00,0.07
2960.50,0.08
2960.00,0.08
2959.50,0.08
2959.00,0.08
2958.50,0.08
2958.00,0.08
2957.50,0.08
2957.00,0.08
2956.50,0.08
2956.00,0.08
2955.50,0.08
2955.00,0.07
2954.50,0.06
2954.00,0.05
2953.50,0.03
2953.00,0.02
2952.50,0.02
2952.00,0.03
2951.50,0.03
2951.00,0.04
2950.50,0.05
2950.00,0.07
2949.50,0.10
2949.00,0.15
2948.50,0.22
2948.00,0.30
2947.50,0.40
2947.00,0.52
2946.50,0.65
2946.00,0.80
2945.50,0.99
2945.00,1.20
2944.50,1.42
2944.00,1.67
2943.50,1.94
2943.00,2.23
2942.50,2.53
2942.00,2.85
2941.50,3.20
2941.00,3.56
2940.50,3.94
2940.00,4.33
2939.50,4.74
2939.00,5.16
2938.50,5.58
2938.00,6.02
2937.50,6.46
2937.00,6.90
2936.50,7.34
2936.00,7.78
2935.50,8.23
2935.00,8.67
2934.50,9.10
2934.00,9.52
2933.50,9.94
2933.00,10.34
2932.50,10.74
2932.00,11.13
2931.50,11.50
2931.00,11.87
2930.50,12.21
2930.00,12.54
2929.50,12.84
2929.00,13.12
2928.50,13.38
2928.00,13.61
2927.50,13.83
2927.00,14.03
2926.50,14.19
2926.00,14.33
2925.50,14.44
2925.00,14.53
2924.50,14.58
2924.00,14.60
2923.50,14.59
2923.00,14.55
2922.50,14.47
2922.00,14.36
2921.50,14.22
2921.00,14.04
2920.50,13.84
2920.00,13.60
2919.50,13.33
2919.00,13.02
2918.50,12.68
2918.00,12.30
2917.50,11.90
2917.00,11.46
2916.50,10.99
2916.00,10.49
2915.50,9.98
2915.00,9.44
2914.50,8.89
2914.00,8.34
2913.50,7.78
2913.00,7.23
2912.50,6.68
2912.00,6.15
2911.50,5.64
2911.00,5.17
2910.50,4.72
2910.00,4.31
2909.50,3.94
2909.00,3.61
2908.50,3.32
2908.00,3.07
2907.50,2.86
2907.00,2.70
2906.50,2.57
2906.00,2.48
2905.50,2.43
2905.00,2.41
2904.50,2.43
2904.00,2.48
2903.50,2.57
2903.00,2.69
2902.50,2.84
2902.00,3.04
2901.50,3.27
2901.00,3.54
2900.50,3.85
2900.00,4.20
2899.50,4.60
2899.00,5.04
2898.50,5.52
2898.00,6.03
2897.50,6.59
2897.00,7.18
2896.50,7.81
2896.00,8.46
2895.50,9.14
2895.00,9.85
2894.50,10.56
2894.00,11.29
2893.50,12.04
2893.00,12.79
2892.50,13.55
2892.00,14.30
2891.50,15.05
2891.00,15.80
2890.50,16.54
2890.00,17.27
2889.50,17.99
2889.00,18.70
2888.50,19.40
2888.00,20.08
2887.50,20.75
2887.00,21.40
2886.50,22.04
2886.00,22.67
2885.50,23.28
2885.00,23.89
2884.50,24.47
2884.00,25.04
2883.50,25.60
2883.00,26.16
2882.50,26.69
2882.00,27.21
2881.50,27.73
2881.00,28.23
2880.50,28.72
2880.00,29.20
2879.50,29.67
2879.00,30.14
2878.50,30.59
2878.00,31.04
2877.50,31.49
2877.00,31.93
2876.50,32.37
2876.00,32.80
2875.50,33.23
2875.00,33.65
2874.50,34.07
2874.00,34.49
2873.50,34.90
2873.00,35.30
2872.50,35.70
2872.00,36.10
2871.50,36.49
2871.00,36.88
2870.50,37.25
2870.00,37.62
2869.50,37.98
2869.00,38.33
2868.50,38.66
2868.00,38.98
2867.50,39.30
2867.00,39.60
2866.50,39.89
2866.00,40.17
2865.50,40.44
2865.00,40.70
2864.50,40.94
2864.00,41.17
2863.50,41.39
2863.00,41.60
2862.50,41.80
2862.00,41.99
2861.50,42.17
2861.00,42.34
2860.50,42.51
2860.00,42.66
2859.50,42.80
2859.00,42.94
2858.50,43.06
2858.00,43.19
2857.50,43.30
2857.00,43.41
2856.50,43.52
2856.00,43.61
2855.50,43.71
2855.00,43.80
2854.50,43.89
2854.00,43.97
2853.50,44.05
2853.00,44.12
2852.50,44.20
2852.00,44.27
2851.50,44.34
2851.00,44.40
2850.50,44.46
2850.00,44.53
2849.50,44.59
2849.00,44.65
2848.50,44.71
2848.00,44.77
2847.50,44.83
2847.00,44.89
2846.50,44.95
2846.00,45.01
2845.50,45.07
2845.00,45.12
2844.50,45.17
2844.00,45.22
2843.50,45.27
2843.00,45.33
2842.50,45.38
2842.00,45.44
2841.50,45.50
2841.00,45.56
2840.50,45.63
2840.00,45.70
2839.50,45.77
2839.00,45.85
2838.50,45.94
2838.00,46.04
2837.50,46.14
2837.00,46.25
2836.50,46.36
2836.00,46.48
2835.50,46.59
2835.00,46.72
2834.50,46.84
2834.00,46.96
2833.50,47.09
2833.00,47.21
2832.50,47.33
2832.00,47.45
2831.50,47.56
2831.00,47.68
2830.50,47.78
2830.00,47.88
2829.50,47.97
2829.00,48.05
2828.50,48.13
2828.00,48.19
2827.50,48.25
2827.00,48.30
2826.50,48.34
2826.00,48.37
2825.50,48.39
2825.00,48.40
2824.50,48.40
2824.00,48.39
2823.50,48.38
2823.00,48.36
2822.50,48.32
2822.00,48.29
2821.50,48.24
2821.00,48.19
2820.50,48.14
2820.00,48.08
2819.50,48.01
2819.00,47.95
2818.50,47.89
2818.00,47.82
2817.50,47.75
2817.00,47.68
2816.50,47.62
2816.00,47.56
2815.50,47.50
2815.00,47.44
2814.50,47.39
2814.00,47.35
2813.50,47.31
2813.00,47.28
2812.50,47.26
2812.00,47.23
2811.50,47.22
2811.00,47.21
2810.50,47.20
2810.00,47.21
2809.50,47.22
2809.00,47.24
2808.50,47.26
2808.00,47.29
2807.50,47.32
2807.00,47.36
2806.50,47.39
2806.00,47.43
2805.50,47.47
2805.00,47.51
2804.50,47.55
2804.00,47.59
2803.50,47.64
2803.00,47.68
2802.50,47.73
2802.00,47.78
2801.50,47.84
2801.00,47.89
2800.50,47.95
2800.00,48.00
2799.50,48.07
2799.00,48.14
2798.50,48.21
2798.00,48.30
2797.50,48.40
2797.00,48.51
2796.50,48.63
2796.00,48.76
2795.50,48.91
2795.00,49.08
2794.50,49.26
2794.00,49.47
2793.50,49.70
2793.00,49.96
2792.50,50.24
2792.00,50.54
2791.50,50.87
2791.00,51.24
2790.50,51.63
2790.00,52.04
2789.50,52.49
2789.00,52.96
2788.50,53.45
2788.00,53.96
2787.50,54.49
2787.00,55.04
2786.50,55.60
2786.00,56.16
2785.50,56.73
2785.00,57.31
2784.50,57.88
2784.00,58.45
2783.50,59.01
2783.00,59.57
2782.50,60.12
2782.00,60.66
2781.50,61.19
2781.00,61.71
2780.50,62.22
2780.00,62.72
2779.50,63.21
2779.00,63.68
2778.50,64.14
2778.00,64.59
2777.50,65.02
2777.00,65.44
2776.50,65.84
2776.00,66.24
2775.50,66.62
2775.00,67.00
2774.50,67.36
2774.00,67.72
2773.50,68.07
2773.00,68.41
2772.50,68.74
2772.00,69.05
2771.50,69.36
2771.00,69.66
2770.50,69.96
2770.00,70.24
2769.50,70.51
2769.00,70.78
2768.50,71.04
2768.00,71.29
2767.50,71.53
2767.00,71.77
2766.50,72.00
2766.00,72.22
2765.50,72.44
2765.00,72.65
2764.50,72.85
2764.00,73.04
2763.50,73.23
2763.00,73.42
2762.50,73.60
2762.00,73.77
2761.50,73.94
2761.00,74.11
2760.50,74.27
2760.00,74.42
2759.50,74.57
2759.00,74.71
2758.50,74.85
2758.00,74.99
2757.50,75.12
2757.00,75.25
2756.50,75.38
2756.00,75.50
2755.50,75.62
2755.00,75.73
2754.50,75.85
2754.00,75.96
2753.50,76.07
2753.00,76.17
2752.50,76.28
2752.00,76.38
2751.50,76.47
2751.00,76.57
2750.50,76.66
2750.00,76.75
2749.50,76.84
2749.00,76.93
2748.50,77.02
2748.00,77.10
2747.50,77.19
2747.00,77.28
2746.50,77.36
2746.00,77.45
2745.50,77.54
2745.00,77.62
2744.50,77.70
2744.00,77.78
2743.50,77.86
2743.00,77.94
2742.50,78.01
2742.00,78.09
2741.50,78.16
2741.00,78.23
2740.50,78.30
2740.00,78.37
2739.50,78.43
2739.00,78.49
2738.50,78.56
2738.00,78.62
2737.50,78.67
2737.00,78.73
2736.50,78.79
2736.00,78.84
2735.50,78.90
2735.00,78.95
2734.50,79.00
2734.00,79.05
2733.50,79.10
2733.00,79.14
2732.50,79.19
2732.00,79.23
2731.50,79.27
2731.00,79.31
2730.50,79.35
2730.00,79.39
2729.50,79.43
2729.00,79.47
2728.50,79.50
2728.00,79.53
2727.50,79.56
2727.00,79.59
2726.50,79.62
2726.00,79.64
2725.50,79.67
2725.00,79.69
2724.50,79.72
2724.00,79.74
2723.50,79.76
2723.00,79.78
2722.50,79.79
2722.00,79.80
2721.50,79.81
2721.00,79.82
2720.50,79.83
2720.00,79.84
2719.50,79.84
2719.00,79.84
2718.50,79.83
2718.00,79.83
2717.50,79.82
2717.00,79.82
2716.50,79.81
2716.00,79.80
2715.50,79.79
2715.00,79.78
2714.50,79.77
2714.00,79.75
2713.50,79.74
2713.00,79.73
2712.50,79.71
2712.00,79.70
2711.50,79.69
2711.00,79.68
2710.50,79.67
2710.00,79.66
2709.50,79.66
2709.00,79.65
2708.50,79.65
2708.00,79.66
2707.50,79.66
2707.00,79.67
2706.50,79.68
2706.00,79.70
2705.50,79.72
2705.00,79.74
2704.50,79.76
2704.00,79.79
2703.50,79.81
2703.00,79.84
2702.50,79.87
2702.00,79.90
2701.50,79.93
2701.00,79.97
2700.50,80.00
2700.00,80.03
2699.50,80.06
2699.00,80.09
2698.50,80.12
2698.00,80.14
2697.50,80.16
2697.00,80.19
2696.50,80.21
2696.00,80.23
2695.50,80.25
2695.00,80.26
2694.50,80.27
2694.00,80.28
2693.50,80.29
2693.00,80.29
2692.50,80.29
2692.00,80.29
2691.50,80.29
2691.00,80.28
2690.50,80.27
2690.00,80.26
2689.50,80.24
2689.00,80.21
2688.50,80.19
2688.00,80.16
2687.50,80.12
2687.00,80.08
2686.50,80.04
2686.00,79.99
2685.50,79.94
2685.00,79.88
2684.50,79.82
2684.00,79.75
2683.50,79.68
2683.00,79.60
2682.50,79.52
2682.00,79.44
2681.50,79.35
2681.00,79.25
2680.50,79.15
2680.00,79.05
2679.50,78.94
2679.00,78.84
2678.50,78.73
2678.00,78.61
2677.50,78.49
2677.00,78.37
2676.50,78.24
2676.00,78.11
2675.50,77.98
2675.00,77.85
2674.50,77.72
2674.00,77.58
2673.50,77.43
2673.00,77.29
2672.50,77.14
2672.00,77.00
2671.50,76.86
2671.00,76.71
2670.50,76.57
2670.00,76.43
2669.50,76.29
2669.00,76.16
2668.50,76.03
2668.00,75.91
2667.50,75.79
2667.00,75.68
2666.50,75.58
2666.00,75.49
2665.50,75.41
2665.00,75.34
2664.50,75.28
2664.00,75.23
2663.50,75.19
2663.00,75.17
2662.50,75.16
2662.00,75.16
2661.50,75.18
2661.00,75.20
2660.50,75.24
2660.00,75.29
2659.50,75.36
2659.00,75.43
2658.50,75.52
2658.00,75.62
2657.50,75.72
2657.00,75.84
2656.50,75.97
2656.00,76.10
2655.50,76.25
2655.00,76.40
2654.50,76.57
2654.00,76.74
2653.50,76.91
2653.00,77.09
2652.50,77.28
2652.00,77.47
2651.50,77.67
2651.00,77.86
2650.50,78.06
2650.00,78.26
2649.50,78.46
2649.00,78.66
2648.50,78.86
2648.00,79.06
2647.50,79.26
2647.00,79.45
2646.50,79.64
2646.00,79.82
2645.50,80.00
2645.00,80.17
2644.50,80.35
2644.00,80.51
2643.50,80.68
2643.00,80.83
2642.50,80.99
2642.00,81.14
2641.50,81.28
2641.00,81.42
2640.50,81.55
2640.00,81.68
2639.50,81.80
2639.00,81.92
2638.50,82.04
2638.00,82.15
2637.50,82.25
2637.00,82.36
2636.50,82.46
2636.00,82.56
2635.50,82.66
2635.00,82.74
2634.50,82.83
2634.00,82.91
2633.50,82.99
2633.00,83.07
2632.50,83.15
2632.00,83.23
2631.50,83.30
2631.00,83.37
2630.50,83.43
2630.00,83.50
2629.50,83.56
2629.00,83.62
2628.50,83.68
2628.00,83.73
2627.50,83.79
2627.00,83.84
2626.50,83.90
2626.00,83.95
2625.50,84.00
2625.00,84.05
2624.50,84.10
2624.00,84.14
2623.50,84.19
2623.00,84.24
2622.50,84.29
2622.00,84.33
2621.50,84.38
2621.00,84.41
2620.50,84.45
2620.00,84.49
2619.50,84.52
2619.00,84.56
2618.50,84.59
2618.00,84.63
2617.50,84.66
2617.00,84.68
2616.50,84.72
2616.00,84.75
2615.50,84.78
2615.00,84.81
2614.50,84.84
2614.00,84.87
2613.50,84.90
2613.00,84.92
2612.50,84.95
2612.00,84.97
2611.50,84.99
2611.00,85.01
2610.50,85.03
2610.00,85.06
2609.50,85.08
2609.00,85.10
2608.50,85.13
2608.00,85.15
2607.50,85.16
2607.00,85.18
2606.50,85.20
2606.00,85.22
2605.50,85.24
2605.00,85.25
2604.50,85.27
2604.00,85.29
2603.50,85.30
2603.00,85.32
2602.50,85.33
2602.00,85.35
2601.50,85.36
2601.00,85.38
2600.50,85.39
2600.00,85.40
2599.50,85.41
2599.00,85.43
2598.50,85.44
2598.00,85.45
2597.50,85.46
2597.00,85.47
2596.50,85.48
2596.00,85.49
2595.50,85.50
2595.00,85.51
2594.50,85.52
2594.00,85.53
2593.50,85.54
2593.00,85.55
2592.50,85.56
2592.00,85.57
2591.50,85.58
2591.00,85.60
2590.50,85.61
2590.00,85.63
2589.50,85.64
2589.00,85.65
2588.50,85.66
2588.00,85.67
2587.50,85.68
2587.00,85.69
2586.50,85.70
2586.00,85.71
2585.50,85.72
2585.00,85.73
2584.50,85.74
2584.00,85.75
2583.50,85.76
2583.00,85.77
2582.50,85.78
2582.00,85.79
2581.50,85.79
2581.00,85.80
2580.50,85.81
2580.00,85.82
2579.50,85.82
2579.00,85.82
2578.50,85.83
2578.00,85.83
2577.50,85.84
2577.00,85.84
2576.50,85.85
2576.00,85.85
2575.50,85.85
2575.00,85.86
2574.50,85.86
2574.00,85.87
2573.50,85.88
2573.00,85.88
2572.50,85.89
2572.00,85.89
2571.50,85.90
2571.00,85.90
2570.50,85.91
2570.00,85.91
2569.50,85.91
2569.00,85.91
2568.50,85.92
2568.00,85.92
2567.50,85.92
2567.00,85.93
2566.50,85.93
2566.00,85.93
2565.50,85.93
2565.00,85.94
2564.50,85.94
2564.00,85.94
2563.50,85.94
2563.00,85.94
2562.50,85.95
2562.00,85.95
2561.50,85.95
2561.00,85.95
2560.50,85.95
2560.00,85.95
2559.50,85.95
2559.00,85.95
2558.50,85.95
2558.00,85.95
2557.50,85.95
2557.00,85.95
2556.50,85.95
2556.00,85.94
2555.50,85.94
2555.00,85.94
2554.50,85.94
2554.00,85.93
2553.50,85.93
2553.00,85.93
2552.50,85.93
2552.00,85.92
2551.50,85.92
2551.00,85.91
2550.50,85.91
2550.00,85.90
2549.50,85.90
2549.00,85.89
2548.50,85.89
2548.00,85.89
2547.50,85.88
2547.00,85.88
2546.50,85.87
2546.00,85.86
2545.50,85.85
2545.00,85.84
2544.50,85.84
2544.00,85.83
2543.50,85.82
2543.00,85.81
2542.50,85.81
2542.00,85.80
2541.50,85.79
2541.00,85.78
2540.50,85.77
2540.00,85.76
2539.50,85.75
2539.00,85.74
2538.50,85.73
2538.00,85.72
2537.50,85.70
2537.00,85.69
2536.50,85.67
2536.00,85.66
2535.50,85.64
2535.00,85.62
2534.50,85.61
2534.00,85.59
2533.50,85.56
2533.00,85.54
2532.50,85.52
2532.00,85.49
2531.50,85.46
2531.00,85.43
2530.50,85.40
2530.00,85.37
2529.50,85.34
2529.00,85.30
2528.50,85.27
2528.00,85.23
2527.50,85.19
2527.00,85.16
2526.50,85.12
2526.00,85.08
2525.50,85.03
2525.00,84.99
2524.50,84.94
2524.00,84.90
2523.50,84.85
2523.00,84.80
2522.50,84.75
2522.00,84.70
2521.50,84.64
2521.00,84.58
2520.50,84.52
2520.00,84.46
2519.50,84.40
2519.00,84.34
2518.50,84.27
2518.00,84.20
2517.50,84.12
2517.00,84.04
2516.50,83.95
2516.00,83.86
2515.50,83.76
2515.00,83.65
2514.50,83.54
2514.00,83.42
2513.50,83.29
2513.00,83.15
2512.50,83.00
2512.00,82.84
2511.50,82.66
2511.00,82.46
2510.50,82.26
2510.00,82.03
2509.50,81.78
2509.00,81.51
2508.50,81.22
2508.00,80.90
2507.50,80.56
2507.00,80.20
2506.50,79.80
2506.00,79.39
2505.50,78.95
2505.00,78.49
2504.50,78.03
2504.00,77.56
2503.50,77.10
2503.00,76.66
2502.50,76.24
2502.00,75.86
2501.50,75.53
2501.00,75.26
2500.50,75.07
2500.00,74.94
2499.50,74.88
2499.00,74.90
2498.50,74.99
2498.00,75.13
2497.50,75.33
2497.00,75.58
2496.50,75.86
2496.00,76.16
2495.50,76.48
2495.00,76.81
2494.50,77.15
2494.00,77.49
2493.50,77.83
2493.00,78.16
2492.50,78.50
2492.00,78.83
2491.50,79.15
2491.00,79.47
2490.50,79.78
2490.00,80.08
2489.50,80.37
2489.00,80.66
2488.50,80.94
2488.00,81.20
2487.50,81.46
2487.00,81.70
2486.50,81.94
2486.00,82.17
2485.50,82.37
2485.00,82.57
2484.50,82.76
2484.00,82.93
2483.50,83.10
2483.00,83.26
2482.50,83.40
2482.00,83.54
2481.50,83.67
2481.00,83.78
2480.50,83.90
2480.00,84.00
2479.50,84.09
2479.00,84.19
2478.50,84.28
2478.00,84.36
2477.50,84.44
2477.00,84.52
2476.50,84.59
2476.00,84.66
2475.50,84.72
2475.00,84.78
2474.50,84.84
2474.00,84.90
2473.50,84.95
2473.00,84.99
2472.50,85.04
2472.00,85.08
2471.50,85.12
2471.00,85.16
2470.50,85.20
2470.00,85.24
2469.50,85.27
2469.00,85.31
2468.50,85.34
2468.00,85.37
2467.50,85.40
2467.00,85.43
2466.50,85.45
2466.00,85.48
2465.50,85.50
2465.00,85.53
2464.50,85.55
2464.00,85.57
2463.50,85.59
2463.00,85.61
2462.50,85.64
2462.00,85.66
2461.50,85.67
2461.00,85.69
2460.50,85.71
2460.00,85.73
2459.50,85.75
2459.00,85.76
2458.50,85.78
2458.00,85.80
2457.50,85.81
2457.00,85.82
2456.50,85.84
2456.00,85.86
2455.50,85.87
2455.00,85.88
2454.50,85.90
2454.00,85.91
2453.50,85.92
2453.00,85.93
2452.50,85.94
2452.00,85.95
2451.50,85.96
2451.00,85.97
2450.50,85.98
2450.00,85.99
2449.50,86.00
2449.00,86.01
2448.50,86.02
2448.00,86.03
2447.50,86.04
2447.00,86.04
2446.50,86.05
2446.00,86.06
2445.50,86.06
2445.00,86.07
2444.50,86.08
2444.00,86.09
2443.50,86.09
2443.00,86.09
2442.50,86.10
2442.00,86.11
2441.50,86.11
2441.00,86.11
2440.50,86.11
2440.00,86.12
2439.50,86.12
2439.00,86.12
2438.50,86.13
2438.00,86.13
2437.50,86.13
2437.00,86.13
2436.50,86.14
2436.00,86.14
2435.50,86.15
2435.00,86.15
2434.50,86.15
2434.00,86.15
2433.50,86.15
2433.00,86.16
2432.50,86.16
2432.00,86.16
2431.50,86.16
2431.00,86.16
2430.50,86.16
2430.00,86.16
2429.50,86.16
2429.00,86.17
2428.50,86.17
2428.00,86.17
2427.50,86.17
2427.00,86.17
2426.50,86.17
2426.00,86.18
2425.50,86.17
2425.00,86.17
2424.50,86.17
2424.00,86.17
2423.50,86.17
2423.00,86.17
2422.50,86.17
2422.00,86.17
2421.50,86.17
2421.00,86.17
2420.50,86.17
2420.00,86.17
2419.50,86.17
2419.00,86.16
2418.50,86.16
2418.00,86.16
2417.50,86.16
2417.00,86.15
2416.50,86.15
2416.00,86.15
2415.50,86.15
2415.00,86.14
2414.50,86.14
2414.00,86.14
2413.50,86.13
2413.00,86.13
2412.50,86.13
2412.00,86.12
2411.50,86.12
2411.00,86.11
2410.50,86.11
2410.00,86.11
2409.50,86.10
2409.00,86.10
2408.50,86.10
2408.00,86.09
2407.50,86.09
2407.00,86.09
2406.50,86.09
2406.00,86.09
2405.50,86.08
2405.00,86.08
2404.50,86.08
2404.00,86.07
2403.50,86.07
2403.00,86.07
2402.50,86.07
2402.00,86.07
2401.50,86.07
2401.00,86.06
2400.50,86.06
2400.00,86.06
2399.50,86.06
2399.00,86.05
2398.50,86.05
2398.00,86.05
2397.50,86.05
2397.00,86.04
2396.50,86.04
2396.00,86.04
2395.50,86.03
2395.00,86.03
2394.50,86.03
2394.00,86.02
2393.50,86.02
2393.00,86.01
2392.50,86.01
2392.00,86.01
2391.50,86.00
2391.00,86.00
2390.50,85.99
2390.00,85.99
2389.50,85.98
2389.00,85.97
2388.50,85.96
2388.00,85.96
2387.50,85.95
2387.00,85.94
2386.50,85.94
2386.00,85.94
2385.50,85.93
2385.00,85.92
2384.50,85.92
2384.00,85.91
2383.50,85.90
2383.00,85.89
2382.50,85.89
2382.00,85.88
2381.50,85.87
2381.00,85.85
2380.50,85.84
2380.00,85.83
2379.50,85.82
2379.00,85.80
2378.50,85.79
2378.00,85.78
2377.50,85.77
2377.00,85.75
2376.50,85.74
2376.00,85.73
2375.50,85.72
2375.00,85.72
2374.50,85.72
2374.00,85.72
2373.50,85.71
2373.00,85.71
2372.50,85.71
2372.00,85.71
2371.50,85.70
2371.00,85.70
2370.50,85.70
2370.00,85.69
2369.50,85.68
2369.00,85.67
2368.50,85.67
2368.00,85.66
2367.50,85.64
2367.00,85.62
2366.50,85.62
2366.00,85.62
2365.50,85.61
2365.00,85.60
2364.50,85.60
2364.00,85.60
2363.50,85.58
2363.00,85.57
2362.50,85.57
2362.00,85.57
2361.50,85.55
2361.00,85.54
2360.50,85.54
2360.00,85.53
2359.50,85.50
2359.00,85.49
2358.50,85.49
2358.00,85.49
2357.50,85.48
2357.00,85.46
2356.50,85.45
2356.00,85.44
2355.50,85.42
2355.00,85.40
2354.50,85.40
2354.00,85.39
2353.50,85.36
2353.00,85.33
2352.50,85.31
2352.00,85.29
2351.50,85.28
2351.00,85.28
2350.50,85.29
2350.00,85.30
2349.50,85.29
2349.00,85.28
2348.50,85.26
2348.00,85.24
2347.50,85.22
2347.00,85.20
2346.50,85.19
2346.00,85.19
2345.50,85.19
2345.00,85.18
2344.50,85.19
2344.00,85.19
2343.50,85.18
2343.00,85.15
2342.50,85.14
2342.00,85.12
2341.50,85.09
2341.00,85.05
2340.50,85.02
2340.00,84.99
2339.50,84.96
2339.00,84.93
2338.50,84.92
2338.00,84.92
2337.50,84.92
2337.00,84.92
2336.50,84.92
2336.00,84.93
2335.50,84.92
2335.00,84.91
2334.50,84.92
2334.00,84.93
2333.50,84.92
2333.00,84.89
2332.50,84.89
2332.00,84.89
2331.50,84.87
2331.00,84.85
2330.50,84.84
2330.00,84.85
2329.50,84.83
2329.00,84.81
2328.50,84.81
2328.00,84.81
2327.50,84.79
2327.00,84.76
2326.50,84.75
2326.00,84.74
2325.50,84.72
2325.00,84.70
2324.50,84.69
2324.00,84.68
2323.50,84.66
2323.00,84.63
2322.50,84.61
2322.00,84.60
2321.50,84.58
2321.00,84.56
2320.50,84.54
2320.00,84.53
2319.50,84.51
2319.00,84.49
2318.50,84.47
2318.00,84.46
2317.50,84.44
2317.00,84.42
2316.50,84.40
2316.00,84.38
2315.50,84.36
2315.00,84.33
2314.50,84.30
2314.00,84.28
2313.50,84.25
2313.00,84.23
2312.50,84.21
2312.00,84.19
2311.50,84.17
2311.00,84.15
2310.50,84.12
2310.00,84.10
2309.50,84.08
2309.00,84.06
2308.50,84.03
2308.00,84.01
2307.50,83.99
2307.00,83.96
2306.50,83.93
2306.00,83.90
2305.50,83.87
2305.00,83.85
2304.50,83.82
2304.00,83.79
2303.50,83.77
2303.00,83.75
2302.50,83.72
2302.00,83.69
2301.50,83.66
2301.00,83.63
2300.50,83.60
2300.00,83.56
2299.50,83.53
2299.00,83.50
2298.50,83.47
2298.00,83.43
2297.50,83.39
2297.00,83.36
2296.50,83.32
2296.00,83.28
2295.50,83.24
2295.00,83.20
2294.50,83.17
2294.00,83.13
2293.50,83.08
2293.00,83.04
2292.50,83.00
2292.00,82.95
2291.50,82.91
2291.00,82.86
2290.50,82.82
2290.00,82.78
2289.50,82.73
2289.00,82.68
2288.50,82.64
2288.00,82.60
2287.50,82.55
2287.00,82.50
2286.50,82.45
2286.00,82.40
2285.50,82.35
2285.00,82.30
2284.50,82.25
2284.00,82.20
2283.50,82.15
2283.00,82.10
2282.50,82.05
2282.00,82.00
2281.50,81.95
2281.00,81.90
2280.50,81.85
2280.00,81.81
2279.50,81.76
2279.00,81.72
2278.50,81.67
2278.00,81.63
2277.50,81.59
2277.00,81.54
2276.50,81.51
2276.00,81.47
2275.50,81.43
2275.00,81.40
2274.50,81.37
2274.00,81.35
2273.50,81.32
2273.00,81.29
2272.50,81.27
2272.00,81.25
2271.50,81.22
2271.00,81.20
2270.50,81.18
2270.00,81.16
2269.50,81.14
2269.00,81.12
2268.50,81.11
2268.00,81.10
2267.50,81.08
2267.00,81.06
2266.50,81.05
2266.00,81.03
2265.50,81.01
2265.00,80.99
2264.50,80.97
2264.00,80.95
2263.50,80.92
2263.00,80.90
2262.50,80.88
2262.00,80.86
2261.50,80.83
2261.00,80.80
2260.50,80.78
2260.00,80.75
2259.50,80.72
2259.00,80.70
2258.50,80.67
2258.00,80.64
2257.50,80.61
2257.00,80.58
2256.50,80.55
2256.00,80.52
2255.50,80.48
2255.00,80.44
2254.50,80.41
2254.00,80.37
2253.50,80.33
2253.00,80.29
2252.50,80.25
2252.00,80.21
2251.50,80.17
2251.00,80.12
2250.50,80.08
2250.00,80.03
2249.50,79.99
2249.00,79.94
2248.50,79.89
2248.00,79.84
2247.50,79.78
2247.00,79.73
2246.50,79.67
2246.00,79.62
2245.50,79.56
2245.00,79.50
2244.50,79.44
2244.00,79.38
2243.50,79.32
2243.00,79.25
2242.50,79.19
2242.00,79.13
2241.50,79.06
2241.00,78.99
2240.50,78.92
2240.00,78.84
2239.50,78.76
2239.00,78.68
2238.50,78.61
2238.00,78.53
2237.50,78.44
2237.00,78.35
2236.50,78.26
2236.00,78.17
2235.50,78.08
2235.00,77.98
2234.50,77.88
2234.00,77.78
2233.50,77.68
2233.00,77.57
2232.50,77.46
2232.00,77.35
2231.50,77.23
2231.00,77.11
2230.50,76.99
2230.00,76.87
2229.50,76.75
2229.00,76.62
2228.50,76.49
2228.00,76.36
2227.50,76.22
2227.00,76.07
2226.50,75.93
2226.00,75.79
2225.50,75.64
2225.00,75.49
2224.50,75.34
2224.00,75.19
2223.50,75.03
2223.00,74.87
2222.50,74.71
2222.00,74.55
2221.50,74.39
2221.00,74.22
2220.50,74.05
2220.00,73.88
2219.50,73.70
2219.00,73.52
2218.50,73.33
2218.00,73.15
2217.50,72.96
2217.00,72.76
2216.50,72.56
2216.00,72.36
2215.50,72.15
2215.00,71.93
2214.50,71.71
2214.00,71.49
2213.50,71.25
2213.00,71.01
2212.50,70.77
2212.00,70.52
2211.50,70.26
2211.00,70.00
2210.50,69.72
2210.00,69.45
2209.50,69.16
2209.00,68.85
2208.50,68.55
2208.00,68.24
2207.50,67.92
2207.00,67.58
2206.50,67.24
2206.00,66.90
2205.50,66.54
2205.00,66.17
2204.50,65.79
2204.00,65.40
2203.50,65.00
2203.00,64.59
2202.50,64.17
2202.00,63.75
2201.50,63.30
2201.00,62.84
2200.50,62.37
2200.00,61.90
2199.50,61.41
2199.00,60.90
2198.50,60.38
2198.00,59.86
2197.50,59.31
2197.00,58.75
2196.50,58.18
2196.00,57.60
2195.50,57.00
2195.00,56.39
2194.50,55.76
2194.00,55.13
2193.50,54.47
2193.00,53.80
2192.50,53.11
2192.00,52.42
2191.50,51.71
2191.00,50.99
2190.50,50.25
2190.00,49.50
2189.50,48.74
2189.00,47.96
2188.50,47.17
2188.00,46.38
2187.50,45.57
2187.00,44.74
2186.50,43.91
2186.00,43.08
2185.50,42.24
2185.00,41.38
2184.50,40.53
2184.00,39.68
2183.50,38.81
2183.00,37.94
2182.50,37.07
2182.00,36.21
2181.50,35.36
2181.00,34.49
2180.50,33.64
2180.00,32.80
2179.50,31.97
2179.00,31.14
2178.50,30.33
2178.00,29.55
2177.50,28.77
2177.00,28.01
2176.50,27.26
2176.00,26.56
2175.50,25.86
2175.00,25.18
2174.50,24.53
2174.00,23.92
2173.50,23.32
2173.00,22.74
2172.50,22.18
2172.00,21.67
2171.50,21.17
2171.00,20.69
2170.50,20.25
2170.00,19.84
2169.50,19.45
2169.00,19.07
2168.50,18.72
2168.00,18.42
2167.50,18.14
2167.00,17.86
2166.50,17.63
2166.00,17.43
2165.50,17.25
2165.00,17.09
2164.50,16.96
2164.00,16.86
2163.50,16.79
2163.00,16.73
2162.50,16.70
2162.00,16.72
2161.50,16.75
2161.00,16.79
2160.50,16.87
2160.00,16.99
2159.50,17.13
2159.00,17.28
2158.50,17.46
2158.00,17.69
2157.50,17.93
2157.00,18.19
2156.50,18.48
2156.00,18.81
2155.50,19.16
2155.00,19.52
2154.50,19.92
2154.00,20.36
2153.50,20.82
2153.00,21.29
2152.50,21.79
2152.00,22.33
2151.50,22.90
2151.00,23.48
2150.50,24.09
2150.00,24.73
2149.50,25.39
2149.00,26.07
2148.50,26.77
2148.00,27.51
2147.50,28.26
2147.00,29.02
2146.50,29.80
2146.00,30.61
2145.50,31.43
2145.00,32.25
2144.50,33.09
2144.00,33.95
2143.50,34.81
2143.00,35.67
2142.50,36.54
2142.00,37.42
2141.50,38.30
2141.00,39.18
2140.50,40.06
2140.00,40.94
2139.50,41.82
2139.00,42.69
2138.50,43.55
2138.00,44.41
2137.50,45.25
2137.00,46.09
2136.50,46.92
2136.00,47.74
2135.50,48.55
2135.00,49.33
2134.50,50.10
2134.00,50.86
2133.50,51.60
2133.00,52.32
2132.50,53.03
2132.00,53.72
2131.50,54.39
2131.00,55.03
2130.50,55.66
2130.00,56.27
2129.50,56.86
2129.00,57.43
2128.50,57.98
2128.00,58.51
2127.50,59.02
2127.00,59.51
2126.50,59.99
2126.00,60.45
2125.50,60.90
2125.00,61.32
2124.50,61.74
2124.00,62.14
2123.50,62.52
2123.00,62.89
2122.50,63.24
2122.00,63.59
2121.50,63.92
2121.00,64.24
2120.50,64.55
2120.00,64.85
2119.50,65.13
2119.00,65.40
2118.50,65.67
2118.00,65.92
2117.50,66.16
2117.00,66.39
2116.50,66.62
2116.00,66.83
2115.50,67.04
2115.00,67.24
2114.50,67.43
2114.00,67.61
2113.50,67.79
2113.00,67.95
2112.50,68.11
2112.00,68.27
2111.50,68.41
2111.00,68.55
2110.50,68.69
2110.00,68.83
2109.50,68.96
2109.00,69.08
2108.50,69.20
2108.00,69.33
2107.50,69.44
2107.00,69.55
2106.50,69.67
2106.00,69.78
2105.50,69.88
2105.00,69.98
2104.50,70.09
2104.00,70.19
2103.50,70.29
2103.00,70.38
2102.50,70.47
2102.00,70.56
2101.50,70.65
2101.00,70.74
2100.50,70.82
2100.00,70.90
2099.50,70.98
2099.00,71.06
2098.50,71.13
2098.00,71.21
2097.50,71.27
2097.00,71.34
2096.50,71.40
2096.00,71.46
2095.50,71.52
2095.00,71.57
2094.50,71.62
2094.00,71.67
2093.50,71.71
2093.00,71.75
2092.50,71.78
2092.00,71.81
2091.50,71.84
2091.00,71.86
2090.50,71.88
2090.00,71.90
2089.50,71.91
2089.00,71.91
2088.50,71.91
2088.00,71.92
2087.50,71.91
2087.00,71.91
2086.50,71.91
2086.00,71.90
2085.50,71.89
2085.00,71.88
2084.50,71.87
2084.00,71.86
2083.50,71.84
2083.00,71.82
2082.50,71.81
2082.00,71.79
2081.50,71.77
2081.00,71.75
2080.50,71.73
2080.00,71.71
2079.50,71.69
2079.00,71.66
2078.50,71.63
2078.00,71.61
2077.50,71.57
2077.00,71.53
2076.50,71.50
2076.00,71.46
2075.50,71.41
2075.00,71.37
2074.50,71.32
2074.00,71.27
2073.50,71.21
2073.00,71.15
2072.50,71.09
2072.00,71.03
2071.50,70.96
2071.00,70.89
2070.50,70.82
2070.00,70.75
2069.50,70.67
2069.00,70.59
2068.50,70.50
2068.00,70.40
2067.50,70.31
2067.00,70.22
2066.50,70.14
2066.00,70.06
2065.50,69.97
2065.00,69.88
2064.50,69.79
2064.00,69.70
2063.50,69.60
2063.00,69.50
2062.50,69.40
2062.00,69.31
2061.50,69.20
2061.00,69.10
2060.50,69.00
2060.00,68.89
2059.50,68.79
2059.00,68.69
2058.50,68.59
2058.00,68.49
2057.50,68.39
2057.00,68.29
2056.50,68.20
2056.00,68.12
2055.50,68.04
2055.00,67.96
2054.50,67.89
2054.00,67.84
2053.50,67.79
2053.00,67.75
2052.50,67.73
2052.00,67.72
2051.50,67.73
2051.00,67.76
2050.50,67.81
2050.00,67.88
2049.50,67.97
2049.00,68.08
2048.50,68.21
2048.00,68.37
2047.50,68.55
2047.00,68.75
2046.50,68.97
2046.00,69.21
2045.50,69.47
2045.00,69.74
2044.50,70.03
2044.00,70.32
2043.50,70.62
2043.00,70.92
2042.50,71.22
2042.00,71.54
2041.50,71.85
2041.00,72.16
2040.50,72.46
2040.00,72.73
2039.50,73.00
2039.00,73.25
2038.50,73.50
2038.00,73.74
2037.50,73.95
2037.00,74.15
2036.50,74.34
2036.00,74.51
2035.50,74.66
2035.00,74.80
2034.50,74.92
2034.00,75.03
2033.50,75.12
2033.00,75.20
2032.50,75.27
2032.00,75.32
2031.50,75.36
2031.00,75.39
2030.50,75.41
2030.00,75.42
2029.50,75.42
2029.00,75.40
2028.50,75.38
2028.00,75.35
2027.50,75.30
2027.00,75.25
2026.50,75.19
2026.00,75.13
2025.50,75.05
2025.00,74.97
2024.50,74.89
2024.00,74.80
2023.50,74.70
2023.00,74.59
2022.50,74.49
2022.00,74.38
2021.50,74.26
2021.00,74.14
2020.50,74.02
2020.00,73.89
2019.50,73.75
2019.00,73.61
2018.50,73.47
2018.00,73.32
2017.50,73.17
2017.00,73.00
2016.50,72.84
2016.00,72.68
2015.50,72.52
2015.00,72.35
2014.50,72.18
2014.00,72.01
2013.50,71.83
2013.00,71.64
2012.50,71.46
2012.00,71.29
2011.50,71.11
2011.00,70.94
2010.50,70.78
2010.00,70.63
2009.50,70.48
2009.00,70.33
2008.50,70.20
2008.00,70.08
2007.50,69.96
2007.00,69.86
2006.50,69.76
2006.00,69.66
2005.50,69.57
2005.00,69.47
2004.50,69.38
2004.00,69.29
2003.50,69.19
2003.00,69.10
2002.50,69.00
2002.00,68.91
2001.50,68.82
2001.00,68.73
2000.50,68.64
2000.00,68.57
1999.50,68.51
1999.00,68.45
1998.50,68.40
1998.00,68.36
1997.50,68.31
1997.00,68.26
1996.50,68.23
1996.00,68.23
1995.50,68.26
1995.00,68.32
1994.50,68.38
1994.00,68.43
1993.50,68.45
1993.00,68.47
1992.50,68.48
1992.00,68.49
1991.50,68.48
1991.00,68.46
1990.50,68.42
1990.00,68.38
1989.50,68.32
1989.00,68.25
1988.50,68.16
1988.00,68.07
1987.50,67.97
1987.00,67.86
1986.50,67.74
1986.00,67.61
1985.50,67.47
1985.00,67.32
1984.50,67.16
1984.00,66.99
1983.50,66.81
1983.00,66.62
1982.50,66.43
1982.00,66.22
1981.50,66.01
1981.00,65.79
1980.50,65.56
1980.00,65.32
1979.50,65.07
1979.00,64.81
1978.50,64.55
1978.00,64.28
1977.50,63.99
1977.00,63.70
1976.50,63.40
1976.00,63.09
1975.50,62.77
1975.00,62.45
1974.50,62.12
1974.00,61.79
1973.50,61.44
1973.00,61.09
1972.50,60.74
1972.00,60.39
1971.50,60.03
1971.00,59.67
1970.50,59.31
1970.00,58.95
1969.50,58.61
1969.00,58.26
1968.50,57.92
1968.00,57.58
1967.50,57.23
1967.00,56.88
1966.50,56.56
1966.00,56.26
1965.50,55.98
1965.00,55.69
1964.50,55.42
1964.00,55.15
1963.50,54.90
1963.00,54.64
1962.50,54.39
1962.00,54.15
1961.50,53.91
1961.00,53.67
1960.50,53.43
1960.00,53.20
1959.50,52.97
1959.00,52.73
1958.50,52.49
1958.00,52.26
1957.50,52.02
1957.00,51.77
1956.50,51.52
1956.00,51.26
1955.50,51.00
1955.00,50.73
1954.50,50.44
1954.00,50.17
1953.50,49.88
1953.00,49.59
1952.50,49.29
1952.00,49.00
1951.50,48.70
1951.00,48.40
1950.50,48.11
1950.00,47.82
1949.50,47.53
1949.00,47.25
1948.50,46.99
1948.00,46.74
1947.50,46.52
1947.00,46.31
1946.50,46.12
1946.00,45.97
1945.50,45.85
1945.00,45.75
1944.50,45.69
1944.00,45.67
1943.50,45.70
1943.00,45.79
1942.50,45.95
1942.00,46.15
1941.50,46.37
1941.00,46.62
1940.50,46.90
1940.00,47.24
1939.50,47.62
1939.00,48.02
1938.50,48.45
1938.00,48.90
1937.50,49.37
1937.00,49.84
1936.50,50.32
1936.00,50.80
1935.50,51.26
1935.00,51.71
1934.50,52.15
1934.00,52.59
1933.50,53.00
1933.00,53.40
1932.50,53.77
1932.00,54.12
1931.50,54.45
1931.00,54.75
1930.50,55.04
1930.00,55.32
1929.50,55.56
1929.00,55.79
1928.50,56.01
1928.00,56.22
1927.50,56.40
1927.00,56.58
1926.50,56.74
1926.00,56.90
1925.50,57.04
1925.00,57.16
1924.50,57.28
1924.00,57.39
1923.50,57.52
1923.00,57.67
1922.50,57.81
1922.00,57.93
1921.50,58.03
1921.00,58.12
1920.50,58.22
1920.00,58.32
1919.50,58.41
1919.00,58.53
1918.50,58.70
1918.00,58.90
1917.50,59.07
1917.00,59.22
1916.50,59.37
1916.00,59.54
1915.50,59.74
1915.00,59.95
1914.50,60.17
1914.00,60.40
1913.50,60.64
1913.00,60.87
1912.50,61.11
1912.00,61.34
1911.50,61.55
1911.00,61.75
1910.50,61.98
1910.00,62.21
1909.50,62.42
1909.00,62.61
1908.50,62.80
1908.00,62.99
1907.50,63.17
1907.00,63.33
1906.50,63.49
1906.00,63.64
1905.50,63.79
1905.00,63.93
1904.50,64.07
1904.00,64.20
1903.50,64.32
1903.00,64.42
1902.50,64.52
1902.00,64.62
1901.50,64.70
1901.00,64.78
1900.50,64.85
1900.00,64.91
1899.50,64.96
1899.00,65.00
1898.50,65.05
1898.00,65.09
1897.50,65.11
1897.00,65.12
1896.50,65.14
1896.00,65.15
1895.50,65.17
1895.00,65.18
1894.50,65.19
1894.00,65.20
1893.50,65.19
1893.00,65.18
1892.50,65.18
1892.00,65.17
1891.50,65.14
1891.00,65.11
1890.50,65.09
1890.00,65.08
1889.50,65.08
1889.00,65.07
1888.50,65.06
1888.00,65.05
1887.50,65.02
1887.00,65.00
1886.50,64.98
1886.00,64.96
1885.50,64.94
1885.00,64.92
1884.50,64.91
1884.00,64.89
1883.50,64.86
1883.00,64.84
1882.50,64.82
1882.00,64.80
1881.50,64.78
1881.00,64.75
1880.50,64.73
1880.00,64.71
1879.50,64.69
1879.00,64.67
1878.50,64.65
1878.00,64.64
1877.50,64.61
1877.00,64.59
1876.50,64.57
1876.00,64.55
1875.50,64.53
1875.00,64.51
1874.50,64.50
1874.00,64.48
1873.50,64.46
1873.00,64.45
1872.50,64.44
1872.00,64.43
1871.50,64.40
1871.00,64.38
1870.50,64.37
1870.00,64.37
1869.50,64.38
1869.00,64.39
1868.50,64.39
1868.00,64.39
1867.50,64.39
1867.00,64.39
1866.50,64.40
1866.00,64.40
1865.50,64.39
1865.00,64.38
1864.50,64.39
1864.00,64.39
1863.50,64.39
1863.00,64.39
1862.50,64.39
1862.00,64.38
1861.50,64.37
1861.00,64.36
1860.50,64.35
1860.00,64.34
1859.50,64.31
1859.00,64.28
1858.50,64.25
1858.00,64.23
1857.50,64.20
1857.00,64.16
1856.50,64.13
1856.00,64.10
1855.50,64.06
1855.00,64.03
1854.50,64.01
1854.00,63.99
1853.50,63.97
1853.00,63.95
1852.50,63.94
1852.00,63.93
1851.50,63.92
1851.00,63.93
1850.50,63.94
1850.00,63.95
1849.50,63.96
1849.00,63.97
1848.50,63.99
1848.00,64.04
1847.50,64.08
1847.00,64.11
1846.50,64.13
1846.00,64.16
1845.50,64.19
1845.00,64.26
1844.50,64.36
1844.00,64.42
1843.50,64.41
1843.00,64.38
1842.50,64.38
1842.00,64.39
1841.50,64.40
1841.00,64.41
1840.50,64.41
1840.00,64.42
1839.50,64.41
1839.00,64.40
1838.50,64.39
1838.00,64.38
1837.50,64.37
1837.00,64.36
1836.50,64.34
1836.00,64.33
1835.50,64.30
1835.00,64.27
1834.50,64.23
1834.00,64.20
1833.50,64.16
1833.00,64.11
1832.50,64.06
1832.00,64.01
1831.50,63.96
1831.00,63.91
1830.50,63.88
1830.00,63.85
1829.50,63.78
1829.00,63.70
1828.50,63.64
1828.00,63.58
1827.50,63.51
1827.00,63.43
1826.50,63.35
1826.00,63.27
1825.50,63.18
1825.00,63.10
1824.50,63.03
1824.00,62.96
1823.50,62.88
1823.00,62.79
1822.50,62.70
1822.00,62.61
1821.50,62.52
1821.00,62.42
1820.50,62.32
1820.00,62.22
1819.50,62.12
1819.00,62.01
1818.50,61.91
1818.00,61.81
1817.50,61.69
1817.00,61.58
1816.50,61.48
1816.00,61.38
1815.50,61.26
1815.00,61.15
1814.50,61.03
1814.00,60.92
1813.50,60.80
1813.00,60.68
1812.50,60.56
1812.00,60.44
1811.50,60.31
1811.00,60.18
1810.50,60.04
1810.00,59.92
1809.50,59.79
1809.00,59.67
1808.50,59.54
1808.00,59.41
1807.50,59.26
1807.00,59.12
1806.50,58.99
1806.00,58.86
1805.50,58.72
1805.00,58.57
1804.50,58.43
1804.00,58.29
1803.50,58.14
1803.00,57.99
1802.50,57.83
1802.00,57.69
1801.50,57.56
1801.00,57.43
1800.50,57.30
1800.00,57.16
1799.50,57.00
1799.00,56.86
1798.50,56.73
1798.00,56.61
1797.50,56.48
1797.00,56.35
1796.50,56.21
1796.00,56.07
1795.50,55.93
1795.00,55.80
1794.50,55.69
1794.00,55.60
1793.50,55.50
1793.00,55.38
1792.50,55.25
1792.00,55.11
1791.50,54.97
1791.00,54.84
1790.50,54.72
1790.00,54.62
1789.50,54.53
1789.00,54.43
1788.50,54.34
1788.00,54.25
1787.50,54.16
1787.00,54.07
1786.50,53.99
1786.00,53.91
1785.50,53.83
1785.00,53.75
1784.50,53.68
1784.00,53.61
1783.50,53.55
1783.00,53.49
1782.50,53.43
1782.00,53.37
1781.50,53.30
1781.00,53.25
1780.50,53.22
1780.00,53.20
1779.50,53.17
1779.00,53.14
1778.50,53.12
1778.00,53.10
1777.50,53.07
1777.00,53.04
1776.50,53.02
1776.00,53.01
1775.50,53.01
1775.00,53.00
1774.50,53.00
1774.00,52.99
1773.50,53.00
1773.00,53.05
1772.50,53.13
1772.00,53.15
1771.50,53.12
1771.00,53.10
1770.50,53.09
1770.00,53.08
1769.50,53.06
1769.00,53.06
1768.50,53.09
1768.00,53.13
1767.50,53.16
1767.00,53.18
1766.50,53.20
1766.00,53.22
1765.50,53.24
1765.00,53.26
1764.50,53.28
1764.00,53.30
1763.50,53.31
1763.00,53.33
1762.50,53.38
1762.00,53.44
1761.50,53.48
1761.00,53.49
1760.50,53.50
1760.00,53.50
1759.50,53.51
1759.00,53.52
1758.50,53.54
1758.00,53.56
1757.50,53.59
1757.00,53.63
1756.50,53.67
1756.00,53.69
1755.50,53.70
1755.00,53.71
1754.50,53.73
1754.00,53.74
1753.50,53.74
1753.00,53.74
1752.50,53.74
1752.00,53.76
1751.50,53.79
1751.00,53.82
1750.50,53.83
1750.00,53.83
1749.50,53.82
1749.00,53.83
1748.50,53.85
1748.00,53.85
1747.50,53.84
1747.00,53.83
1746.50,53.83
1746.00,53.81
1745.50,53.78
1745.00,53.74
1744.50,53.71
1744.00,53.68
1743.50,53.64
1743.00,53.62
1742.50,53.60
1742.00,53.59
1741.50,53.56
1741.00,53.53
1740.50,53.52
1740.00,53.49
1739.50,53.41
1739.00,53.34
1738.50,53.28
1738.00,53.22
1737.50,53.15
1737.00,53.09
1736.50,53.03
1736.00,52.98
1735.50,52.95
1735.00,52.93
1734.50,52.91
1734.00,52.78
1733.50,52.59
1733.00,52.48
1732.50,52.42
1732.00,52.36
1731.50,52.28
1731.00,52.19
1730.50,52.10
1730.00,52.01
1729.50,51.93
1729.00,51.87
1728.50,51.82
1728.00,51.77
1727.50,51.70
1727.00,51.63
1726.50,51.57
1726.00,51.50
1725.50,51.44
1725.00,51.37
1724.50,51.32
1724.00,51.27
1723.50,51.22
1723.00,51.17
1722.50,51.13
1722.00,51.09
1721.50,51.05
1721.00,51.00
1720.50,50.97
1720.00,50.93
1719.50,50.88
1719.00,50.84
1718.50,50.86
1718.00,50.88
1717.50,50.83
1717.00,50.78
1716.50,50.78
1716.00,50.78
1715.50,50.76
1715.00,50.72
1714.50,50.69
1714.00,50.65
1713.50,50.62
1713.00,50.60
1712.50,50.59
1712.00,50.57
1711.50,50.54
1711.00,50.52
1710.50,50.50
1710.00,50.49
1709.50,50.46
1709.00,50.43
1708.50,50.42
1708.00,50.39
1707.50,50.37
1707.00,50.35
1706.50,50.33
1706.00,50.30
1705.50,50.26
1705.00,50.21
1704.50,50.18
1704.00,50.15
1703.50,50.11
1703.00,50.08
1702.50,50.05
1702.00,50.03
1701.50,50.00
1701.00,49.93
1700.50,49.91
1700.00,49.88
1699.50,49.82
1699.00,49.77
1698.50,49.72
1698.00,49.67
1697.50,49.60
1697.00,49.53
1696.50,49.47
1696.00,49.38
1695.50,49.28
1695.00,49.23
1694.50,49.20
1694.00,49.15
1693.50,49.08
1693.00,49.01
1692.50,48.94
1692.00,48.87
1691.50,48.79
1691.00,48.71
1690.50,48.62
1690.00,48.54
1689.50,48.44
1689.00,48.35
1688.50,48.26
1688.00,48.18
1687.50,48.09
1687.00,48.03
1686.50,47.95
1686.00,47.87
1685.50,47.75
1685.00,47.66
1684.50,47.62
1684.00,47.46
1683.50,47.32
1683.00,47.29
1682.50,47.27
1682.00,47.23
1681.50,47.17
1681.00,47.10
1680.50,47.04
1680.00,46.98
1679.50,46.92
1679.00,46.88
1678.50,46.84
1678.00,46.78
1677.50,46.72
1677.00,46.66
1676.50,46.62
1676.00,46.56
1675.50,46.44
1675.00,46.30
1674.50,46.18
1674.00,46.10
1673.50,46.01
1673.00,45.92
1672.50,45.82
1672.00,45.72
1671.50,45.59
1671.00,45.48
1670.50,45.41
1670.00,45.34
1669.50,45.18
1669.00,44.97
1668.50,44.80
1668.00,44.68
1667.50,44.58
1667.00,44.48
1666.50,44.38
1666.00,44.27
1665.50,44.14
1665.00,44.02
1664.50,43.93
1664.00,43.84
1663.50,43.72
1663.00,43.57
1662.50,43.40
1662.00,43.26
1661.50,43.13
1661.00,43.02
1660.50,42.91
1660.00,42.81
1659.50,42.69
1659.00,42.58
1658.50,42.47
1658.00,42.35
1657.50,42.23
1657.00,42.12
1656.50,42.02
1656.00,41.95
1655.50,41.85
1655.00,41.77
1654.50,41.68
1654.00,41.67
1653.50,41.49
1653.00,41.04
1652.50,40.89
1652.00,40.90
1651.50,40.86
1651.00,40.81
1650.50,40.75
1650.00,40.68
1649.50,40.59
1649.00,40.50
1648.50,40.42
1648.00,40.35
1647.50,40.25
1647.00,40.16
1646.50,40.06
1646.00,39.93
1645.50,39.80
1645.00,39.71
1644.50,39.65
1644.00,39.59
1643.50,39.51
1643.00,39.43
1642.50,39.35
1642.00,39.27
1641.50,39.19
1641.00,39.11
1640.50,39.03
1640.00,38.96
1639.50,38.88
1639.00,38.81
1638.50,38.74
1638.00,38.68
1637.50,38.60
1637.00,38.53
1636.50,38.49
1636.00,38.41
1635.50,38.21
1635.00,38.04
1634.50,37.98
1634.00,37.95
1633.50,37.88
1633.00,37.80
1632.50,37.72
1632.00,37.64
1631.50,37.55
1631.00,37.46
1630.50,37.37
1630.00,37.29
1629.50,37.21
1629.00,37.12
1628.50,37.03
1628.00,36.92
1627.50,36.80
1627.00,36.70
1626.50,36.62
1626.00,36.55
1625.50,36.47
1625.00,36.39
1624.50,36.33
1624.00,36.25
1623.50,36.12
1623.00,35.98
1622.50,35.87
1622.00,35.79
1621.50,35.71
1621.00,35.62
1620.50,35.54
1620.00,35.46
1619.50,35.37
1619.00,35.29
1618.50,35.22
1618.00,35.16
1617.50,35.09
1617.00,34.98
1616.50,34.86
1616.00,34.78
1615.50,34.73
1615.00,34.68
1614.50,34.64
1614.00,34.60
1613.50,34.55
1613.00,34.50
1612.50,34.47
1612.00,34.43
1611.50,34.39
1611.00,34.36
1610.50,34.33
1610.00,34.31
1609.50,34.27
1609.00,34.22
1608.50,34.19
1608.00,34.17
1607.50,34.13
1607.00,34.07
1606.50,34.03
1606.00,33.98
1605.50,33.92
1605.00,33.85
1604.50,33.77
1604.00,33.68
1603.50,33.55
1603.00,33.38
1602.50,33.18
1602.00,32.94
1601.50,32.63
1601.00,32.23
1600.50,31.76
1600.00,31.22
1599.50,30.60
1599.00,29.94
1598.50,29.30
1598.00,28.77
1597.50,28.42
1597.00,28.31
1596.50,28.51
1596.00,28.97
1595.50,29.63
1595.00,30.42
1594.50,31.29
1594.00,32.10
1593.50,32.76
1593.00,33.30
1592.50,33.78
1592.00,34.21
1591.50,34.57
1591.00,34.88
1590.50,35.16
1590.00,35.43
1589.50,35.66
1589.00,35.87
1588.50,36.08
1588.00,36.28
1587.50,36.46
1587.00,36.64
1586.50,36.82
1586.00,37.00
1585.50,37.16
1585.00,37.32
1584.50,37.49
1584.00,37.65
1583.50,37.81
1583.00,37.96
1582.50,38.11
1582.00,38.27
1581.50,38.41
1581.00,38.54
1580.50,38.69
1580.00,38.83
1579.50,38.97
1579.00,39.09
1578.50,39.20
1578.00,39.30
1577.50,39.39
1577.00,39.52
1576.50,39.77
1576.00,40.02
1575.50,40.15
1575.00,40.22
1574.50,40.30
1574.00,40.39
1573.50,40.48
1573.00,40.57
1572.50,40.68
1572.00,40.78
1571.50,40.87
1571.00,40.95
1570.50,41.06
1570.00,41.25
1569.50,41.44
1569.00,41.55
1568.50,41.61
1568.00,41.68
1567.50,41.74
1567.00,41.80
1566.50,41.86
1566.00,41.93
1565.50,42.00
1565.00,42.09
1564.50,42.18
1564.00,42.25
1563.50,42.30
1563.00,42.34
1562.50,42.37
1562.00,42.40
1561.50,42.40
1561.00,42.40
1560.50,42.42
1560.00,42.60
1559.50,42.97
1559.00,43.16
1558.50,43.02
1558.00,42.89
1557.50,42.89
1557.00,42.90
1556.50,42.90
1556.00,42.89
1555.50,42.88
1555.00,42.90
1554.50,42.95
1554.00,42.99
1553.50,42.99
1553.00,42.99
1552.50,42.99
1552.00,42.98
1551.50,42.95
1551.00,42.93
1550.50,42.92
1550.00,42.94
1549.50,42.95
1549.00,42.96
1548.50,42.98
1548.00,42.97
1547.50,42.96
1547.00,42.93
1546.50,42.92
1546.00,42.91
1545.50,42.90
1545.00,42.89
1544.50,42.87
1544.00,42.85
1543.50,42.84
1543.00,42.85
1542.50,42.89
1542.00,42.91
1541.50,42.86
1541.00,42.80
1540.50,42.79
1540.00,42.83
1539.50,42.73
1539.00,42.58
1538.50,42.54
1538.00,42.55
1537.50,42.54
1537.00,42.52
1536.50,42.49
1536.00,42.46
1535.50,42.42
1535.00,42.39
1534.50,42.37
1534.00,42.35
1533.50,42.32
1533.00,42.27
1532.50,42.25
1532.00,42.22
1531.50,42.20
1531.00,42.18
1530.50,42.17
1530.00,42.16
1529.50,42.13
1529.00,42.10
1528.50,42.09
1528.00,42.09
1527.50,42.08
1527.00,42.08
1526.50,42.09
1526.00,42.12
1525.50,42.13
1525.00,42.14
1524.50,42.14
1524.00,42.14
1523.50,42.14
1523.00,42.15
1522.50,42.18
1522.00,42.23
1521.50,42.25
1521.00,42.22
1520.50,42.19
1520.00,42.18
1519.50,42.17
1519.00,42.14
1518.50,42.12
1518.00,42.09
1517.50,42.10
1517.00,42.13
1516.50,42.15
1516.00,42.17
1515.50,42.18
1515.00,42.19
1514.50,42.20
1514.00,42.21
1513.50,42.20
1513.00,42.19
1512.50,42.19
1512.00,42.20
1511.50,42.18
1511.00,42.15
1510.50,42.13
1510.00,42.11
1509.50,42.09
1509.00,42.07
1508.50,42.06
1508.00,42.07
1507.50,42.08
1507.00,42.13
1506.50,42.20
1506.00,42.18
1505.50,42.14
1505.00,42.13
1504.50,42.12
1504.00,42.11
1503.50,42.08
1503.00,42.05
1502.50,42.04
1502.00,42.03
1501.50,42.00
1501.00,41.97
1500.50,41.95
1500.00,41.92
1499.50,41.87
1499.00,41.80
1498.50,41.74
1498.00,41.68
1497.50,41.59
1497.00,41.50
1496.50,41.39
1496.00,41.23
1495.50,41.06
1495.00,40.93
1494.50,40.80
1494.00,40.65
1493.50,40.46
1493.00,40.27
1492.50,40.10
1492.00,39.93
1491.50,39.72
1491.00,39.47
1490.50,39.16
1490.00,38.78
1489.50,38.44
1489.00,38.20
1488.50,38.03
1488.00,37.84
1487.50,37.56
1487.00,37.27
1486.50,37.02
1486.00,36.82
1485.50,36.63
1485.00,36.46
1484.50,36.29
1484.00,36.14
1483.50,36.00
1483.00,35.87
1482.50,35.77
1482.00,35.67
1481.50,35.57
1481.00,35.48
1480.50,35.43
1480.00,35.38
1479.50,35.33
1479.00,35.28
1478.50,35.24
1478.00,35.20
1477.50,35.14
1477.00,35.06
1476.50,34.98
1476.00,34.92
1475.50,34.85
1475.00,34.79
1474.50,34.72
1474.00,34.63
1473.50,34.49
1473.00,34.31
1472.50,34.05
1472.00,33.72
1471.50,33.38
1471.00,33.11
1470.50,32.85
1470.00,32.56
1469.50,32.20
1469.00,31.79
1468.50,31.38
1468.00,30.95
1467.50,30.50
1467.00,30.09
1466.50,29.72
1466.00,29.33
1465.50,28.80
1465.00,28.05
1464.50,27.32
1464.00,26.75
1463.50,26.25
1463.00,25.75
1462.50,25.19
1462.00,24.59
1461.50,23.98
1461.00,23.41
1460.50,22.90
1460.00,22.40
1459.50,21.85
1459.00,21.28
1458.50,20.75
1458.00,20.25
1457.50,19.66
1457.00,18.95
1456.50,18.34
1456.00,17.87
1455.50,17.44
1455.00,17.01
1454.50,16.59
1454.00,16.17
1453.50,15.75
1453.00,15.30
1452.50,14.80
1452.00,14.25
1451.50,13.71
1451.00,13.22
1450.50,12.79
1450.00,12.39
1449.50,12.01
1449.00,11.64
1448.50,11.27
1448.00,10.89
1447.50,10.57
1447.00,10.37
1446.50,10.27
1446.00,10.21
1445.50,10.17
1445.00,10.19
1444.50,10.28
1444.00,10.41
1443.50,10.58
1443.00,10.79
1442.50,11.07
1442.00,11.37
1441.50,11.68
1441.00,12.02
1440.50,12.40
1440.00,12.78
1439.50,13.13
1439.00,13.46
1438.50,13.77
1438.00,14.04
1437.50,14.33
1437.00,14.76
1436.50,15.25
1436.00,15.52
1435.50,15.60
1435.00,15.67
1434.50,15.75
1434.00,15.80
1433.50,15.80
1433.00,15.76
1432.50,15.70
1432.00,15.59
1431.50,15.43
1431.00,15.22
1430.50,14.95
1430.00,14.57
1429.50,14.13
1429.00,13.73
1428.50,13.34
1428.00,12.89
1427.50,12.36
1427.00,11.80
1426.50,11.24
1426.00,10.67
1425.50,10.08
1425.00,9.48
1424.50,8.79
1424.00,7.95
1423.50,7.12
1423.00,6.47
1422.50,5.94
1422.00,5.43
1421.50,4.93
1421.00,4.50
1420.50,4.13
1420.00,3.66
1419.50,3.02
1419.00,2.46
1418.50,2.17
1418.00,1.98
1417.50,1.79
1417.00,1.62
1416.50,1.47
1416.00,1.34
1415.50,1.23
1415.00,1.15
1414.50,1.09
1414.00,1.03
1413.50,0.98
1413.00,0.96
1412.50,0.95
1412.00,0.93
1411.50,0.92
1411.00,0.93
1410.50,0.96
1410.00,0.97
1409.50,1.00
1409.00,1.04
1408.50,1.09
1408.00,1.14
1407.50,1.19
1407.00,1.26
1406.50,1.33
1406.00,1.40
1405.50,1.48
1405.00,1.59
1404.50,1.69
1404.00,1.76
1403.50,1.83
1403.00,1.90
1402.50,1.98
1402.00,2.06
1401.50,2.15
1401.00,2.24
1400.50,2.35
1400.00,2.47
1399.50,2.66
1399.00,2.92
1398.50,3.20
1398.00,3.47
1397.50,3.76
1397.00,4.09
1396.50,4.46
1396.00,4.88
1395.50,5.42
1395.00,6.13
1394.50,6.91
1394.00,7.62
1393.50,8.23
1393.00,8.80
1392.50,9.39
1392.00,10.03
1391.50,10.71
1391.00,11.40
1390.50,12.06
1390.00,12.68
1389.50,13.26
1389.00,13.77
1388.50,14.27
1388.00,14.83
1387.50,15.47
1387.00,16.06
1386.50,16.50
1386.00,16.87
1385.50,17.22
1385.00,17.58
1384.50,17.94
1384.00,18.30
1383.50,18.68
1383.00,19.05
1382.50,19.42
1382.00,19.77
1381.50,20.13
1381.00,20.47
1380.50,20.78
1380.00,21.08
1379.50,21.37
1379.00,21.63
1378.50,21.87
1378.00,22.08
1377.50,22.28
1377.00,22.45
1376.50,22.57
1376.00,22.68
1375.50,22.79
1375.00,22.89
1374.50,22.96
1374.00,23.03
1373.50,23.10
1373.00,23.17
1372.50,23.25
1372.00,23.36
1371.50,23.51
1371.00,23.70
1370.50,23.91
1370.00,24.14
1369.50,24.39
1369.00,24.65
1368.50,24.89
1368.00,25.10
1367.50,25.29
1367.00,25.45
1366.50,25.59
1366.00,25.72
1365.50,25.85
1365.00,25.96
1364.50,26.04
1364.00,26.12
1363.50,26.24
1363.00,26.37
1362.50,26.46
1362.00,26.55
1361.50,26.63
1361.00,26.71
1360.50,26.78
1360.00,26.85
1359.50,26.92
1359.00,26.98
1358.50,27.03
1358.00,27.09
1357.50,27.15
1357.00,27.20
1356.50,27.23
1356.00,27.26
1355.50,27.31
1355.00,27.34
1354.50,27.35
1354.00,27.37
1353.50,27.39
1353.00,27.39
1352.50,27.39
1352.00,27.38
1351.50,27.38
1351.00,27.36
1350.50,27.33
1350.00,27.30
1349.50,27.27
1349.00,27.24
1348.50,27.19
1348.00,27.15
1347.50,27.11
1347.00,27.07
1346.50,27.02
1346.00,26.99
1345.50,26.97
1345.00,26.94
1344.50,26.91
1344.00,26.89
1343.50,26.89
1343.00,26.89
1342.50,26.88
1342.00,26.87
1341.50,26.87
1341.00,26.86
1340.50,26.85
1340.00,26.84
1339.50,26.83
1339.00,26.81
1338.50,26.78
1338.00,26.75
1337.50,26.72
1337.00,26.67
1336.50,26.60
1336.00,26.54
1335.50,26.48
1335.00,26.39
1334.50,26.29
1334.00,26.18
1333.50,26.07
1333.00,25.95
1332.50,25.81
1332.00,25.67
1331.50,25.53
1331.00,25.37
1330.50,25.20
1330.00,25.02
1329.50,24.85
1329.00,24.66
1328.50,24.46
1328.00,24.26
1327.50,24.05
1327.00,23.84
1326.50,23.61
1326.00,23.39
1325.50,23.17
1325.00,22.93
1324.50,22.68
1324.00,22.44
1323.50,22.20
1323.00,21.94
1322.50,21.68
1322.00,21.42
1321.50,21.17
1321.00,20.90
1320.50,20.63
1320.00,20.36
1319.50,20.08
1319.00,19.79
1318.50,19.49
1318.00,19.21
1317.50,18.93
1317.00,18.64
1316.50,18.34
1316.00,18.06
1315.50,17.79
1315.00,17.50
1314.50,17.20
1314.00,16.91
1313.50,16.62
1313.00,16.31
1312.50,16.00
1312.00,15.70
1311.50,15.42
1311.00,15.14
1310.50,14.85
1310.00,14.56
1309.50,14.28
1309.00,13.99
1308.50,13.69
1308.00,13.40
1307.50,13.12
1307.00,12.84
1306.50,12.56
1306.00,12.29
1305.50,12.01
1305.00,11.73
1304.50,11.45
1304.00,11.18
1303.50,10.90
1303.00,10.62
1302.50,10.34
1302.00,10.06
1301.50,9.79
1301.00,9.50
1300.50,9.21
1300.00,8.94
1299.50,8.66
1299.00,8.38
1298.50,8.09
1298.00,7.81
1297.50,7.53
1297.00,7.24
1296.50,6.95
1296.00,6.67
1295.50,6.40
1295.00,6.12
1294.50,5.85
1294.00,5.58
1293.50,5.32
1293.00,5.06
1292.50,4.79
1292.00,4.55
1291.50,4.31
1291.00,4.06
1290.50,3.82
1290.00,3.60
1289.50,3.38
1289.00,3.16
1288.50,2.94
1288.00,2.74
1287.50,2.54
1287.00,2.33
1286.50,2.14
1286.00,1.97
1285.50,1.80
1285.00,1.63
1284.50,1.46
1284.00,1.32
1283.50,1.17
1283.00,1.03
1282.50,0.90
1282.00,0.78
1281.50,0.67
1281.00,0.56
1280.50,0.46
1280.00,0.39
1279.50,0.32
1279.00,0.25
1278.50,0.19
1278.00,0.15
1277.50,0.11
1277.00,0.07
1276.50,0.05
1276.00,0.04
1275.50,0.03
1275.00,0.01
1274.50,0.01
1274.00,0.01
1273.50,0.01
1273.00,0.01
1272.50,0.00
1272.00,0.01
1271.50,0.01
1271.00,0.00
1270.50,0.01
1270.00,0.01
1269.50,0.01
1269.00,0.00
1268.50,0.00
1268.00,0.00
1267.50,0.00
1267.00,0.00
1266.50,0.00
1266.00,0.00
1265.50,0.01
1265.00,0.00
1264.50,-0.00
1264.00,0.01
1263.50,0.01
1263.00,0.01
1262.50,0.00
1262.00,0.01
1261.50,0.01
1261.00,0.00
1260.50,0.00
1260.00,0.00
1259.50,0.00
1259.00,0.00
1258.50,0.00
1258.00,0.00
1257.50,0.00
1257.00,0.00
1256.50,0.00
1256.00,0.01
1255.50,0.01
1255.00,0.01
1254.50,0.01
1254.00,0.01
1253.50,0.01
1253.00,0.01
1252.50,0.00
1252.00,0.01
1251.50,0.01
1251.00,0.00
1250.50,0.00
1250.00,0.01
1249.50,0.01
1249.00,0.00
1248.50,0.00
1248.00,0.01
1247.50,0.01
1247.00,0.01
1246.50,0.01
1246.00,0.01
1245.50,0.01
1245.00,0.01
1244.50,0.01
1244.00,0.03
1243.50,0.04
1243.00,0.05
1242.50,0.07
1242.00,0.09
1241.50,0.12
1241.00,0.14
1240.50,0.16
1240.00,0.20
1239.50,0.24
1239.00,0.27
1238.50,0.31
1238.00,0.35
1237.50,0.39
1237.00,0.42
1236.50,0.46
1236.00,0.50
1235.50,0.53
1235.00,0.56
1234.50,0.58
1234.00,0.61
1233.50,0.63
1233.00,0.64
1232.50,0.65
1232.00,0.66
1231.50,0.67
1231.00,0.66
1230.50,0.66
1230.00,0.66
1229.50,0.66
1229.00,0.64
1228.50,0.63
1228.00,0.61
1227.50,0.60
1227.00,0.57
1226.50,0.55
1226.00,0.53
1225.50,0.51
1225.00,0.48
1224.50,0.45
1224.00,0.43
1223.50,0.41
1223.00,0.37
1222.50,0.35
1222.00,0.32
1221.50,0.30
1221.00,0.28
1220.50,0.25
1220.00,0.24
1219.50,0.22
1219.00,0.19
1218.50,0.17
1218.00,0.16
1217.50,0.15
1217.00,0.13
1216.50,0.12
1216.00,0.11
1215.50,0.10
1215.00,0.09
1214.50,0.08
1214.00,0.07
1213.50,0.07
1213.00,0.06
1212.50,0.05
1212.00,0.05
1211.50,0.05
1211.00,0.04
1210.50,0.03
1210.00,0.03
1209.50,0.02
1209.00,0.02
1208.50,0.01
1208.00,0.02
1207.50,0.02
1207.00,0.02
1206.50,0.02
1206.00,0.02
1205.50,0.02
1205.00,0.01
1204.50,0.01
1204.00,0.01
1203.50,0.01
1203.00,0.01
1202.50,0.00
1202.00,0.01
1201.50,0.01
1201.00,0.01
1200.50,0.00
1200.00,0.01
1199.50,0.01
1199.00,0.00
1198.50,0.00
1198.00,0.00
1197.50,0.00
1197.00,0.00
1196.50,0.00
1196.00,0.01
1195.50,0.01
1195.00,0.00
1194.50,0.00
1194.00,0.00
1193.50,0.01
1193.00,0.00
1192.50,0.00
1192.00,0.01
1191.50,0.01
1191.00,0.00
1190.50,0.00
1190.00,0.00
1189.50,0.00
1189.00,0.00
1188.50,0.01
1188.00,0.01
1187.50,0.01
1187.00,0.00
1186.50,0.00
1186.00,0.01
1185.50,0.01
1185.00,0.00
1184.50,0.00
1184.00,0.00
1183.50,0.00
1183.00,0.00
1182.50,0.01
1182.00,0.01
1181.50,0.01
1181.00,0.01
1180.50,0.00
1180.00,0.00
1179.50,0.01
1179.00,0.00
1178.50,0.01
1178.00,0.01
1177.50,0.01
1177.00,0.01
1176.50,0.01
1176.00,0.00
1175.50,0.00
1175.00,0.00
1174.50,0.00
1174.00,0.01
1173.50,0.01
1173.00,0.01
1172.50,0.01
1172.00,0.01
1171.50,0.01
1171.00,0.00
1170.50,0.00
1170.00,0.01
1169.50,0.01
1169.00,0.00
1168.50,0.00
1168.00,0.01
1167.50,0.01
1167.00,0.01
1166.50,0.00
1166.00,0.01
1165.50,0.01
1165.00,0.00
1164.50,0.00
1164.00,0.01
1163.50,0.01
1163.00,0.00
1162.50,0.00
1162.00,0.01
1161.50,0.00
1161.00,0.00
1160.50,0.01
1160.00,0.00
1159.50,0.00
1159.00,0.01
1158.50,0.01
1158.00,0.01
1157.50,0.00
1157.00,0.01
1156.50,0.00
1156.00,0.00
1155.50,0.00
1155.00,0.00
1154.50,0.00
1154.00,0.01
1153.50,0.01
1153.00,0.01
1152.50,0.00
1152.00,0.00
1151.50,0.00
1151.00,0.00
1150.50,0.01
1150.00,0.01
1149.50,0.01
1149.00,0.01
1148.50,0.01
1148.00,0.01
1147.50,0.00
1147.00,0.00
1146.50,0.00
1146.00,0.00
1145.50,0.00
1145.00,0.01
1144.50,0.01
1144.00,0.00
1143.50,0.00
1143.00,0.01
1142.50,0.00
1142.00,0.01
1141.50,0.01
1141.00,0.00
1140.50,0.00
1140.00,0.00
1139.50,0.00
1139.00,0.00
1138.50,0.00
1138.00,0.00
1137.50,0.00
1137.00,0.00
1136.50,0.00
1136.00,0.00
1135.50,0.01
1135.00,0.01
1134.50,0.00
1134.00,0.00
1133.50,0.01
1133.00,0.00
1132.50,0.00
1132.00,0.00
1131.50,0.00
1131.00,0.00
1130.50,0.00
1130.00,0.00
1129.50,0.00
1129.00,0.01
1128.50,0.01
1128.00,0.00
1127.50,0.00
1127.00,0.00
1126.50,0.00
1126.00,0.00
1125.50,0.01
1125.00,0.01
1124.50,0.01
1124.00,0.01
1123.50,0.01
1123.00,0.01
1122.50,0.00
1122.00,0.00
1121.50,0.00
1121.00,0.00
1120.50,0.01
1120.00,0.00
1119.50,0.00
1119.00,0.00
1118.50,0.01
1118.00,0.00
1117.50,0.00
1117.00,0.00
1116.50,0.00
1116.00,0.00
1115.50,0.01
1115.00,0.00
1114.50,0.00
1114.00,0.00
1113.50,0.00
1113.00,0.00
1112.50,0.01
1112.00,0.00
1111.50,0.00
1111.00,0.00
1110.50,0.01
1110.00,0.00
1109.50,0.00
1109.00,0.00
1108.50,0.00
1108.00,0.00
1107.50,0.00
1107.00,0.01
1106.50,0.01
1106.00,0.01
1105.50,0.01
1105.00,0.01
1104.50,0.00
1104.00,0.00
1103.50,0.00
1103.00,0.00
1102.50,0.01
1102.00,0.00
1101.50,0.00
1101.00,0.00
1100.50,0.00
1100.00,0.01
1099.50,0.01
1099.00,0.00
1098.50,0.00
1098.00,0.00
1097.50,0.01
1097.00,0.01
1096.50,0.01
1096.00,0.00
1095.50,0.00
1095.00,0.00
1094.50,0.01
1094.00,0.01
1093.50,0.00
1093.00,0.00
1092.50,0.01
1092.00,0.00
1091.50,0.00
1091.00,0.01
1090.50,0.01
1090.00,0.01
1089.50,0.01
1089.00,0.01
1088.50,0.00
1088.00,0.01
1087.50,0.01
1087.00,0.00
1086.50,0.00
1086.00,0.00
1085.50,0.01
1085.00,0.00
1084.50,0.00
1084.00,0.01
1083.50,0.01
1083.00,0.00
1082.50,0.00
1082.00,0.01
1081.50,0.01
1081.00,0.00
1080.50,0.00
1080.00,0.00
1079.50,0.00
1079.00,0.00
1078.50,0.00
1078.00,0.00
1077.50,0.01
1077.00,0.01
1076.50,0.01
1076.00,0.01
1075.50,0.01
1075.00,0.01
1074.50,0.01
1074.00,0.00
1073.50,0.01
1073.00,0.01
1072.50,0.01
1072.00,0.01
1071.50,0.01
1071.00,0.01
1070.50,0.01
1070.00,0.01
1069.50,0.01
1069.00,0.00
1068.50,0.01
1068.00,0.01
1067.50,0.01
1067.00,0.01
1066.50,0.01
1066.00,0.01
1065.50,0.00
1065.00,0.01
1064.50,0.01
1064.00,0.01
1063.50,0.01
1063.00,0.01
1062.50,0.01
1062.00,0.01
1061.50,0.00
1061.00,0.00
1060.50,0.01
1060.00,0.01
1059.50,0.01
1059.00,0.01
1058.50,0.01
1058.00,0.01
1057.50,0.00
1057.00,0.00
1056.50,0.01
1056.00,0.00
1055.50,0.00
1055.00,0.01
1054.50,0.01
1054.00,0.01
1053.50,0.01
1053.00,0.01
1052.50,0.01
1052.00,0.01
1051.50,0.00
1051.00,0.01
1050.50,0.01
1050.00,0.01
1049.50,0.00
1049.00,0.00
1048.50,0.00
1048.00,0.01
1047.50,0.00
1047.00,0.01
1046.50,0.01
1046.00,0.01
1045.50,0.01
1045.00,0.01
1044.50,0.00
1044.00,0.01
1043.50,0.01
1043.00,0.00
1042.50,0.01
1042.00,0.00
1041.50,0.00
1041.00,0.00
1040.50,0.00
1040.00,0.00
1039.50,0.01
1039.00,0.01
1038.50,0.01
1038.00,0.01
1037.50,0.00
1037.00,0.00
1036.50,0.01
1036.00,0.00
1035.50,0.00
1035.00,0.01
1034.50,0.01
1034.00,0.01
1033.50,0.01
1033.00,0.01
1032.50,0.01
1032.00,0.01
1031.50,0.01
1031.00,0.01
1030.50,0.00
1030.00,0.00
1029.50,0.00
1029.00,0.01
1028.50,0.00
1028.00,0.00
1027.50,0.01
1027.00,0.01
1026.50,0.01
1026.00,0.01
1025.50,0.01
1025.00,0.00
1024.50,0.00
1024.00,0.00
1023.50,0.01
1023.00,0.01
1022.50,0.01
1022.00,0.01
1021.50,0.01
1021.00,0.01
1020.50,0.01
1020.00,0.01
1019.50,0.01
1019.00,0.00
1018.50,0.00
1018.00,0.01
1017.50,0.01
1017.00,0.00
1016.50,0.01
1016.00,0.01
1015.50,0.00
1015.00,0.01
1014.50,0.01
1014.00,0.00
1013.50,0.00
1013.00,0.00
1012.50,0.01
1012.00,0.01
1011.50,0.01
1011.00,0.01
1010.50,0.01
1010.00,0.01
1009.50,0.01
1009.00,0.01
1008.50,0.01
1008.00,0.01
1007.50,0.00
1007.00,0.01
1006.50,0.01
1006.00,0.00
1005.50,0.00
1005.00,0.00
1004.50,0.00
1004.00,0.00
1003.50,0.01
1003.00,0.00
1002.50,0.00
1002.00,0.00
1001.50,0.01
1001.00,0.01
1000.50,0.01
1000.00,0.01
999.50,0.01
999.00,0.00
998.50,0.00
998.00,0.00
997.50,0.00
997.00,0.00
996.50,0.00
996.00,0.00
995.50,0.00
995.00,0.00
994.50,0.00
994.00,0.01
993.50,0.01
993.00,0.01
992.50,0.00
992.00,0.01
991.50,0.01
991.00,0.00
990.50,0.00
990.00,0.01
989.50,0.02
989.00,0.03
988.50,0.03
988.00,0.03
987.50,0.04
987.00,0.04
986.50,0.04
986.00,0.06
985.50,0.07
985.00,0.08
984.50,0.09
984.00,0.11
983.50,0.14
983.00,0.16
982.50,0.18
982.00,0.21
981.50,0.24
981.00,0.26
980.50,0.30
980.00,0.33
979.50,0.37
979.00,0.41
978.50,0.44
978.00,0.49
977.50,0.54
977.00,0.59
976.50,0.64
976.00,0.70
975.50,0.76
975.00,0.81
974.50,0.87
974.00,0.93
973.50,0.99
973.00,1.05
972.50,1.12
972.00,1.19
971.50,1.25
971.00,1.32
970.50,1.38
970.00,1.45
969.50,1.52
969.00,1.59
968.50,1.65
968.00,1.72
967.50,1.79
967.00,1.85
966.50,1.90
966.00,1.96
965.50,2.01
965.00,2.05
964.50,2.09
964.00,2.13
963.50,2.18
963.00,2.21
962.50,2.25
962.00,2.28
961.50,2.32
961.00,2.34
960.50,2.37
960.00,2.40
959.50,2.42
959.00,2.45
958.50,2.48
958.00,2.52
957.50,2.56
957.00,2.61
956.50,2.67
956.00,2.73
955.50,2.81
955.00,2.89
954.50,2.99
954.00,3.12
953.50,3.25
953.00,3.40
952.50,3.56
952.00,3.73
951.50,3.90
951.00,4.07
950.50,4.24
950.00,4.41
949.50,4.57
949.00,4.72
948.50,4.86
948.00,4.99
947.50,5.11
947.00,5.21
946.50,5.30
946.00,5.39
945.50,5.47
945.00,5.54
944.50,5.60
944.00,5.66
943.50,5.72
943.00,5.76
942.50,5.78
942.00,5.80
941.50,5.82
941.00,5.82
940.50,5.82
940.00,5.82
939.50,5.81
939.00,5.78
938.50,5.75
938.00,5.70
937.50,5.65
937.00,5.59
936.50,5.51
936.00,5.43
935.50,5.33
935.00,5.22
934.50,5.10
934.00,4.98
933.50,4.84
933.00,4.69
932.50,4.54
932.00,4.38
931.50,4.22
931.00,4.06
930.50,3.89
930.00,3.72
929.50,3.56
929.00,3.39
928.50,3.24
928.00,3.10
927.50,2.96
927.00,2.83
926.50,2.71
926.00,2.59
925.50,2.47
925.00,2.36
924.50,2.24
924.00,2.13
923.50,2.00
923.00,1.87
922.50,1.74
922.00,1.60
921.50,1.47
921.00,1.33
920.50,1.20
920.00,1.08
919.50,0.97
919.00,0.86
918.50,0.75
918.00,0.66
917.50,0.59
917.00,0.53
916.50,0.48
916.00,0.44
915.50,0.40
915.00,0.37
914.50,0.35
914.00,0.33
913.50,0.32
913.00,0.30
912.50,0.29
912.00,0.29
911.50,0.29
911.00,0.29
910.50,0.29
910.00,0.31
909.50,0.32
909.00,0.33
908.50,0.35
908.00,0.37
907.50,0.39
907.00,0.41
906.50,0.42
906.00,0.43
905.50,0.44
905.00,0.44
904.50,0.44
904.00,0.44
903.50,0.44
903.00,0.42
902.50,0.40
902.00,0.39
901.50,0.37
901.00,0.34
900.50,0.32
900.00,0.30
899.50,0.28
899.00,0.25
898.50,0.22
898.00,0.20
897.50,0.17
897.00,0.15
896.50,0.13
896.00,0.12
895.50,0.11
895.00,0.09
894.50,0.08
894.00,0.07
893.50,0.06
893.00,0.05
892.50,0.04
892.00,0.04
891.50,0.03
891.00,0.03
890.50,0.02
890.00,0.01
889.50,0.01
889.00,0.01
888.50,0.00
888.00,0.00
887.50,0.00
887.00,0.00
886.50,0.01
886.00,0.00
885.50,0.00
885.00,0.01
884.50,0.01
884.00,0.01
883.50,0.00
883.00,0.01
882.50,0.01
882.00,0.01
881.50,0.01
881.00,0.01
880.50,0.01
880.00,0.01
879.50,0.00
879.00,0.01
878.50,0.01
878.00,0.01
877.50,0.01
877.00,0.01
876.50,0.01
876.00,0.01
875.50,0.01
875.00,0.01
874.50,0.02
874.00,0.01
873.50,0.01
873.00,0.01
872.50,0.02
872.00,0.01
871.50,0.01
871.00,0.01
870.50,0.00
870.00,0.01
869.50,0.01
869.00,0.01
868.50,0.01
868.00,0.01
867.50,0.01
867.00,0.01
866.50,0.01
866.00,0.01
865.50,0.01
865.00,0.01
864.50,0.01
864.00,0.01
863.50,0.01
863.00,0.01
862.50,0.01
862.00,0.01
861.50,0.01
861.00,0.01
860.50,0.01
860.00,0.01
859.50,0.01
859.00,0.01
858.50,0.01
858.00,0.01
857.50,0.00
857.00,0.00
856.50,0.00
856.00,0.00
855.50,0.01
855.00,0.01
854.50,0.01
854.00,0.01
853.50,0.01
853.00,0.01
852.50,0.01
852.00,0.01
851.50,0.02
851.00,0.01
850.50,0.00
850.00,0.00
849.50,0.00
849.00,0.00
848.50,0.01
848.00,0.00
847.50,0.00
847.00,0.01
846.50,0.01
846.00,0.01
845.50,0.01
845.00,0.01
844.50,0.01
844.00,0.00
843.50,0.00
843.00,0.00
842.50,0.00
842.00,0.01
841.50,0.01
841.00,0.01
840.50,0.01
840.00,0.01
839.50,0.01
839.00,0.00
838.50,0.00
838.00,0.00
837.50,0.00
837.00,0.00
836.50,0.00
836.00,0.00
835.50,0.00
835.00,0.00
834.50,0.00
834.00,0.00
833.50,0.00
833.00,0.01
832.50,0.01
832.00,0.00
831.50,0.00
831.00,0.01
830.50,0.02
830.00,0.02
829.50,0.02
829.00,0.02
828.50,0.01
828.00,0.01
827.50,0.01
827.00,0.01
826.50,0.01
826.00,0.01
825.50,0.02
825.00,0.01
824.50,0.00
824.00,0.00
823.50,0.00
823.00,0.01
822.50,0.01
822.00,0.01
821.50,0.01
821.00,0.01
820.50,0.01
820.00,0.01
819.50,0.01
819.00,0.01
818.50,0.01
818.00,0.01
817.50,0.01
817.00,0.01
816.50,0.01
816.00,0.01
815.50,0.01
815.00,0.02
814.50,0.02
814.00,0.01
813.50,0.00
813.00,0.00
812.50,0.01
812.00,0.01
811.50,0.01
811.00,0.00
810.50,0.01
810.00,0.01
809.50,0.00
809.00,0.01
808.50,0.01
808.00,0.02
807.50,0.02
807.00,0.01
806.50,0.00
806.00,0.00
805.50,0.01
805.00,0.01
804.50,0.02
804.00,0.02
803.50,0.01
803.00,0.01
802.50,0.01
802.00,0.00
801.50,0.00
801.00,0.01
800.50,0.01
800.00,0.01
799.50,0.01
799.00,0.01
798.50,0.01
798.00,0.01
797.50,0.01
797.00,0.01
796.50,0.01
796.00,0.01
795.50,0.00
795.00,0.01
794.50,0.01
794.00,0.01
793.50,0.01
793.00,0.01
792.50,0.00
792.00,0.01
791.50,0.01
791.00,0.00
790.50,0.01
790.00,0.01
789.50,0.01
789.00,0.01
788.50,0.01
788.00,0.01
787.50,0.01
787.00,0.00
786.50,0.01
786.00,0.01
785.50,0.00
785.00,0.01
784.50,0.02
784.00,0.02
783.50,0.01
783.00,0.01
782.50,0.01
782.00,0.01
781.50,0.00
781.00,0.00
780.50,0.00
780.00,0.00
779.50,0.01
779.00,0.01
778.50,0.01
778.00,0.01
777.50,0.01
777.00,0.01
776.50,0.01
776.00,0.01
775.50,0.01
775.00,0.01
774.50,0.01
774.00,0.01
773.50,0.01
773.00,0.01
772.50,0.01
772.00,0.02
771.50,0.02
771.00,0.02
770.50,0.02
770.00,0.02
769.50,0.02
769.00,0.01
768.50,0.01
768.00,0.02
767.50,0.02
767.00,0.02
766.50,0.01
766.00,0.01
765.50,0.01
765.00,0.01
764.50,0.01
764.00,0.00
763.50,0.00
763.00,0.00
762.50,0.00
762.00,0.01
761.50,0.01
761.00,0.01
760.50,0.01
760.00,0.01
759.50,0.00
759.00,0.00
758.50,0.00
758.00,0.00
757.50,0.00
757.00,0.00
756.50,0.01
756.00,0.02
755.50,0.02
755.00,0.02
754.50,0.01
754.00,0.01
753.50,0.01
753.00,0.01
752.50,0.02
752.00,0.03
751.50,0.05
751.00,0.07
750.50,0.09
750.00,0.13
749.50,0.17
749.00,0.22
748.50,0.27
748.00,0.33
747.50,0.40
747.00,0.47
746.50,0.55
746.00,0.63
745.50,0.71
745.00,0.79
744.50,0.87
744.00,0.94
743.50,1.01
743.00,1.07
742.50,1.14
742.00,1.21
741.50,1.28
741.00,1.35
740.50,1.42
740.00,1.49
739.50,1.56
739.00,1.64
738.50,1.71
738.00,1.79
737.50,1.86
737.00,1.93
736.50,2.00
736.00,2.06
735.50,2.13
735.00,2.18
734.50,2.23
734.00,2.28
733.50,2.32
733.00,2.36
732.50,2.40
732.00,2.43
731.50,2.46
731.00,2.48
730.50,2.51
730.00,2.53
729.50,2.54
729.00,2.55
728.50,2.55
728.00,2.56
727.50,2.56
727.00,2.56
726.50,2.55
726.00,2.54
725.50,2.54
725.00,2.52
724.50,2.51
724.00,2.49
723.50,2.47
723.00,2.44
722.50,2.41
722.00,2.37
721.50,2.34
721.00,2.29
720.50,2.24
720.00,2.18
719.50,2.12
719.00,2.05
718.50,1.97
718.00,1.89
717.50,1.81
717.00,1.72
716.50,1.63
716.00,1.52
715.50,1.42
715.00,1.31
714.50,1.20
714.00,1.08
713.50,0.97
713.00,0.86
712.50,0.75
712.00,0.65
711.50,0.56
711.00,0.48
710.50,0.41
710.00,0.35
709.50,0.30
709.00,0.25
708.50,0.21
708.00,0.18
707.50,0.16
707.00,0.15
706.50,0.14
706.00,0.13
705.50,0.13
705.00,0.12
704.50,0.12
704.00,0.11
703.50,0.11
703.00,0.12
702.50,0.11
702.00,0.11
701.50,0.11
701.00,0.11
700.50,0.11
700.00,0.11
699.50,0.12
699.00,0.13
698.50,0.13
698.00,0.14
697.50,0.14
697.00,0.14
696.50,0.13
696.00,0.13
695.50,0.13
695.00,0.13
694.50,0.12
694.00,0.11
693.50,0.11
693.00,0.11
692.50,0.11
692.00,0.11
691.50,0.11
691.00,0.11
690.50,0.11
690.00,0.10
689.50,0.10
689.00,0.10
688.50,0.10
688.00,0.11
687.50,0.13
687.00,0.15
686.50,0.15
686.00,0.16
685.50,0.18
685.00,0.20
684.50,0.22
684.00,0.24
683.50,0.27
683.00,0.30
682.50,0.34
682.00,0.37
681.50,0.41
681.00,0.45
680.50,0.49
680.00,0.53
679.50,0.57
679.00,0.63
678.50,0.68
678.00,0.73
677.50,0.78
677.00,0.82
676.50,0.86
676.00,0.90
675.50,0.94
675.00,0.97
674.50,1.00
674.00,1.03
673.50,1.06
673.00,1.09
672.50,1.12
672.00,1.14
671.50,1.15
671.00,1.16
670.50,1.17
670.00,1.17
669.50,1.18
669.00,1.19
668.50,1.19
668.00,1.17
667.50,1.14
667.00,1.13
666.50,1.12
666.00,1.10
665.50,1.07
665.00,1.04
664.50,1.00
664.00,0.95
663.50,0.91
663.00,0.86
662.50,0.82
662.00,0.79
661.50,0.77
661.00,0.78
660.50,0.82
660.00,0.93
659.50,1.11
659.00,1.40
658.50,1.82
658.00,2.37
657.50,3.05
657.00,3.82
656.50,4.63
656.00,5.44
655.50,6.21
655.00,6.92
654.50,7.55
654.00,8.11
653.50,8.60
653.00,9.01
652.50,9.36
652.00,9.66
651.50,9.91
651.00,10.12
650.50,10.29
650.00,10.44
649.50,10.56
649.00,10.65
648.50,10.71
648.00,10.75
647.50,10.78
647.00,10.78
646.50,10.77
646.00,10.75
645.50,10.71
645.00,10.65
644.50,10.58
644.00,10.50
643.50,10.42
643.00,10.33
642.50,10.22
642.00,10.11
641.50,10.00
641.00,9.88
640.50,9.74
640.00,9.61
639.50,9.47
639.00,9.34
638.50,9.20
638.00,9.07
637.50,8.94
637.00,8.82
636.50,8.70
636.00,8.58
635.50,8.47
635.00,8.37
634.50,8.28
634.00,8.20
633.50,8.13
633.00,8.06
632.50,7.99
632.00,7.92
631.50,7.86
631.00,7.81
630.50,7.76
630.00,7.71
629.50,7.68
629.00,7.65
628.50,7.62
628.00,7.59
627.50,7.58
627.00,7.58
626.50,7.58
626.00,7.59
625.50,7.59
625.00,7.59
624.50,7.59
624.00,7.59
623.50,7.59
623.00,7.61
622.50,7.63
622.00,7.65
621.50,7.67
621.00,7.70
620.50,7.73
620.00,7.76
619.50,7.79
619.00,7.82
618.50,7.84
618.00,7.85
617.50,7.84
617.00,7.83
616.50,7.82
616.00,7.80
615.50,7.79
615.00,7.77
614.50,7.76
614.00,7.74
613.50,7.73
613.00,7.72
612.50,7.70
612.00,7.67
611.50,7.62
611.00,7.55
610.50,7.46
610.00,7.34
609.50,7.20
609.00,7.03
608.50,6.82
608.00,6.56
607.50,6.28
607.00,5.97
606.50,5.63
606.00,5.25
605.50,4.86
605.00,4.46
604.50,4.07
604.00,3.72
603.50,3.40
603.00,3.12
602.50,2.88
602.00,2.69
601.50,2.56
601.00,2.49
600.50,2.47
600.00,2.47
599.50,2.50
599.00,2.55
598.50,2.62
598.00,2.72
597.50,2.83
597.00,2.96
596.50,3.08
596.00,3.20
595.50,3.32
595.00,3.43
594.50,3.53
594.00,3.61
593.50,3.68
593.00,3.73
592.50,3.77
592.00,3.78
591.50,3.76
591.00,3.74
590.50,3.69
590.00,3.64
589.50,3.59
589.00,3.52
588.50,3.44
588.00,3.33
587.50,3.20
587.00,3.08
586.50,2.96
586.00,2.83
585.50,2.70
585.00,2.57
584.50,2.44
584.00,2.32
583.50,2.20
583.00,2.09
582.50,1.99
582.00,1.89
581.50,1.79
581.00,1.70
580.50,1.61
580.00,1.52
579.50,1.45
579.00,1.38
578.50,1.32
578.00,1.26
577.50,1.21
577.00,1.17
576.50,1.13
576.00,1.08
575.50,1.03
575.00,1.00
574.50,0.98
574.00,0.96
573.50,0.94
573.00,0.92
572.50,0.89
572.00,0.87
571.50,0.84
571.00,0.83
570.50,0.82
570.00,0.80
569.50,0.78
569.00,0.77
568.50,0.77
568.00,0.76
567.50,0.76
567.00,0.74
566.50,0.72
566.00,0.69
565.50,0.67
565.00,0.66
564.50,0.66
564.00,0.65
563.50,0.64
563.00,0.62
562.50,0.61
562.00,0.60
561.50,0.59
561.00,0.59
560.50,0.58
560.00,0.58
559.50,0.57
559.00,0.56
558.50,0.55
558.00,0.53
557.50,0.51
557.00,0.50
556.50,0.49
556.00,0.47
555.50,0.46
555.00,0.47
554.50,0.47
554.00,0.47
553.50,0.47
553.00,0.47
552.50,0.46
552.00,0.45
551.50,0.43
551.00,0.44
550.50,0.44
550.00,0.44
549.50,0.42
549.00,0.41
548.50,0.39
548.00,0.38
547.50,0.38
547.00,0.40
546.50,0.40
546.00,0.39
545.50,0.38
545.00,0.37
544.50,0.37
544.00,0.36
543.50,0.35
543.00,0.34
542.50,0.34
542.00,0.33
541.50,0.34
541.00,0.35
540.50,0.36
540.00,0.35
539.50,0.34
539.00,0.34
538.50,0.33
538.00,0.30
537.50,0.29
537.00,0.28
536.50,0.29
536.00,0.29
535.50,0.29
535.00,0.29
534.50,0.28
534.00,0.26
533.50,0.25
533.00,0.25
532.50,0.25
532.00,0.24
531.50,0.23
531.00,0.23
530.50,0.22
530.00,0.20
529.50,0.18
529.00,0.17
528.50,0.17
528.00,0.17
527.50,0.17
527.00,0.18
526.50,0.19
526.00,0.17
525.50,0.15
525.00,0.15
524.50,0.14
524.00,0.13
523.50,0.13
523.00,0.13
522.50,0.15
522.00,0.16
521.50,0.16
521.00,0.15
520.50,0.15
520.00,0.15
519.50,0.15
519.00,0.17
518.50,0.17
518.00,0.15
517.50,0.13
517.00,0.12
516.50,0.13
516.00,0.13
515.50,0.13
515.00,0.14
514.50,0.15
514.00,0.13
513.50,0.10
513.00,0.09
512.50,0.09
512.00,0.09
511.50,0.10
511.00,0.11
510.50,0.13
510.00,0.14
509.50,0.15
509.00,0.15
508.50,0.15
508.00,0.12
507.50,0.09
507.00,0.08
506.50,0.08
506.00,0.08
505.50,0.08
505.00,0.08
504.50,0.08
504.00,0.08
503.50,0.07
503.00,0.07
502.50,0.06
502.00,0.06
501.50,0.06
501.00,0.06
500.50,0.07
500.00,0.06
499.50,0.03
499.00,0.03
498.50,0.04
498.00,0.05
497.50,0.06
497.00,0.08
496.50,0.12
496.00,0.14
495.50,0.14
495.00,0.15
494.50,0.14
494.00,0.11
493.50,0.07
493.00,0.06
492.50,0.06
492.00,0.04
491.50,0.03
491.00,0.03
490.50,0.03
490.00,0.02
489.50,0.02
489.00,0.03
488.50,0.08
488.00,0.11
487.50,0.13
487.00,0.13
486.50,0.11
486.00,0.08
485.50,0.05
485.00,0.06
484.50,0.09
484.00,0.09
483.50,0.07
483.00,0.07
482.50,0.07
482.00,0.07
481.50,0.07
481.00,0.06
480.50,0.04
480.00,0.02
479.50,0.03
479.00,0.03
478.50,0.05
478.00,0.06
477.50,0.04
477.00,0.02
476.50,0.02
476.00,0.02
475.50,0.04
475.00,0.05
474.50,0.04
474.00,0.03
473.50,0.03
473.00,0.06
472.50,0.06
472.00,0.03
471.50,0.03
471.00,0.02
470.50,0.01
470.00,0.03
469.50,0.03
469.00,0.05
468.50,0.03
468.00,0.02
467.50,0.04
467.00,0.06
466.50,0.06
466.00,0.04
465.50,0.04
465.00,0.04
464.50,0.04
464.00,0.06
463.50,0.09
463.00,0.07
462.50,0.03
462.00,0.01
461.50,0.03
461.00,0.03
460.50,0.00
460.00,0.02
459.50,0.04
459.00,0.09
458.50,0.14
458.00,0.09
457.50,0.02
457.00,0.08
456.50,0.07
456.00,0.07
455.50,0.06
455.00,0.06
454.50,0.05
454.00,0.05
453.50,0.05
453.00,0.04
452.50,0.07
452.00,0.08
451.50,0.06
451.00,0.07
450.50,0.10
450.00,0.10
449.50,0.06
449.00,0.05
448.50,0.07
448.00,0.08
447.50,0.09
447.00,0.09
446.50,0.07
446.00,0.08
445.50,0.12
445.00,0.10
444.50,0.06
444.00,0.10
443.50,0.14
443.00,0.14
442.50,0.13
442.00,0.15
441.50,0.16
441.00,0.13
440.50,0.11
440.00,0.12
439.50,0.13
439.00,0.10
438.50,0.04
438.00,0.01
437.50,0.02
437.00,0.02
436.50,0.06
436.00,0.11
435.50,0.13
435.00,0.11
434.50,0.07
434.00,0.04
433.50,0.03
433.00,0.02
432.50,0.06
432.00,0.11
431.50,0.13
431.00,0.09
430.50,0.05
430.00,0.04
429.50,0.04
429.00,0.08
428.50,0.14
428.00,0.15
427.50,0.11
427.00,0.09
426.50,0.13
426.00,0.13
425.50,0.10
425.00,0.12
424.50,0.15
424.00,0.13
423.50,0.07
423.00,0.14
422.50,0.25
422.00,0.26
421.50,0.21
421.00,0.22
420.50,0.24
420.00,0.16
419.50,0.14
419.00,0.28
418.50,0.24
418.00,0.22
417.50,0.11
417.00,0.10
416.50,0.25
416.00,0.27
415.50,0.24
415.00,0.25
414.50,0.30
414.00,0.28
413.50,0.24
413.00,0.22
412.50,0.18
412.00,0.11
411.50,0.12
411.00,0.15
410.50,0.12
410.00,0.08
409.50,0.11
409.00,0.15
408.50,0.15
408.00,0.12
407.50,0.14
407.00,0.13
406.50,0.14
406.00,0.14
405.50,0.15
405.00,0.15
404.50,0.13
404.00,0.22
403.50,0.26
403.00,0.29
402.50,0.37
402.00,0.33
401.50,0.16
401.00,0.09
400.50,0.20
400.00,0.37
