Created as New Dataset,Sample 161 By irlear Date Thursday, June 06 2019
cm-1,%T
4000.00,79.31
3999.50,79.33
3999.00,79.36
3998.50,79.38
3998.00,79.40
3997.50,79.42
3997.00,79.44
3996.50,79.46
3996.00,79.48
3995.50,79.51
3995.00,79.53
3994.50,79.55
3994.00,79.57
3993.50,79.59
3993.00,79.61
3992.50,79.63
3992.00,79.65
3991.50,79.68
3991.00,79.70
3990.50,79.72
3990.00,79.75
3989.50,79.77
3989.00,79.79
3988.50,79.81
3988.00,79.83
3987.50,79.86
3987.00,79.88
3986.50,79.91
3986.00,79.94
3985.50,79.97
3985.00,79.99
3984.50,80.01
3984.00,80.02
3983.50,80.04
3983.00,80.05
3982.50,80.07
3982.00,80.08
3981.50,80.10
3981.00,80.12
3980.50,80.15
3980.00,80.17
3979.50,80.19
3979.00,80.22
3978.50,80.24
3978.00,80.26
3977.50,80.28
3977.00,80.30
3976.50,80.32
3976.00,80.34
3975.50,80.36
3975.00,80.38
3974.50,80.40
3974.00,80.42
3973.50,80.44
3973.00,80.47
3972.50,80.49
3972.00,80.50
3971.50,80.52
3971.00,80.53
3970.50,80.55
3970.00,80.57
3969.50,80.60
3969.00,80.62
3968.50,80.64
3968.00,80.66
3967.50,80.68
3967.00,80.69
3966.50,80.71
3966.00,80.73
3965.50,80.75
3965.00,80.77
3964.50,80.79
3964.00,80.80
3963.50,80.82
3963.00,80.84
3962.50,80.86
3962.00,80.88
3961.50,80.90
3961.00,80.91
3960.50,80.92
3960.00,80.94
3959.50,80.95
3959.00,80.96
3958.50,80.98
3958.00,80.99
3957.50,81.01
3957.00,81.02
3956.50,81.03
3956.00,81.04
3955.50,81.05
3955.00,81.05
3954.50,81.06
3954.00,81.07
3953.50,81.09
3953.00,81.09
3952.50,81.09
3952.00,81.08
3951.50,81.08
3951.00,81.09
3950.50,81.11
3950.00,81.12
3949.50,81.13
3949.00,81.15
3948.50,81.16
3948.00,81.18
3947.50,81.18
3947.00,81.18
3946.50,81.18
3946.00,81.18
3945.50,81.18
3945.00,81.18
3944.50,81.17
3944.00,81.17
3943.50,81.19
3943.00,81.21
3942.50,81.24
3942.00,81.26
3941.50,81.27
3941.00,81.29
3940.50,81.30
3940.00,81.31
3939.50,81.33
3939.00,81.34
3938.50,81.35
3938.00,81.36
3937.50,81.37
3937.00,81.37
3936.50,81.38
3936.00,81.39
3935.50,81.40
3935.00,81.41
3934.50,81.41
3934.00,81.41
3933.50,81.42
3933.00,81.43
3932.50,81.44
3932.00,81.44
3931.50,81.44
3931.00,81.45
3930.50,81.46
3930.00,81.47
3929.50,81.48
3929.00,81.48
3928.50,81.47
3928.00,81.46
3927.50,81.44
3927.00,81.42
3926.50,81.40
3926.00,81.40
3925.50,81.42
3925.00,81.45
3924.50,81.47
3924.00,81.48
3923.50,81.48
3923.00,81.46
3922.50,81.44
3922.00,81.43
3921.50,81.41
3921.00,81.41
3920.50,81.42
3920.00,81.42
3919.50,81.41
3919.00,81.41
3918.50,81.41
3918.00,81.41
3917.50,81.41
3917.00,81.40
3916.50,81.39
3916.00,81.37
3915.50,81.36
3915.00,81.35
3914.50,81.34
3914.00,81.32
3913.50,81.31
3913.00,81.30
3912.50,81.29
3912.00,81.28
3911.50,81.27
3911.00,81.25
3910.50,81.24
3910.00,81.22
3909.50,81.21
3909.00,81.19
3908.50,81.16
3908.00,81.13
3907.50,81.10
3907.00,81.07
3906.50,81.06
3906.00,81.07
3905.50,81.09
3905.00,81.12
3904.50,81.11
3904.00,81.08
3903.50,81.04
3903.00,81.02
3902.50,81.01
3902.00,80.98
3901.50,80.93
3901.00,80.89
3900.50,80.87
3900.00,80.86
3899.50,80.86
3899.00,80.85
3898.50,80.83
3898.00,80.82
3897.50,80.81
3897.00,80.79
3896.50,80.76
3896.00,80.74
3895.50,80.72
3895.00,80.71
3894.50,80.69
3894.00,80.67
3893.50,80.65
3893.00,80.65
3892.50,80.67
3892.00,80.69
3891.50,80.69
3891.00,80.66
3890.50,80.62
3890.00,80.60
3889.50,80.59
3889.00,80.57
3888.50,80.55
3888.00,80.51
3887.50,80.49
3887.00,80.49
3886.50,80.51
3886.00,80.53
3885.50,80.52
3885.00,80.50
3884.50,80.49
3884.00,80.49
3883.50,80.47
3883.00,80.44
3882.50,80.39
3882.00,80.34
3881.50,80.31
3881.00,80.33
3880.50,80.35
3880.00,80.36
3879.50,80.37
3879.00,80.37
3878.50,80.37
3878.00,80.35
3877.50,80.33
3877.00,80.30
3876.50,80.26
3876.00,80.21
3875.50,80.18
3875.00,80.18
3874.50,80.20
3874.00,80.20
3873.50,80.18
3873.00,80.16
3872.50,80.14
3872.00,80.11
3871.50,80.09
3871.00,80.10
3870.50,80.12
3870.00,80.10
3869.50,80.04
3869.00,79.99
3868.50,79.96
3868.00,79.93
3867.50,79.89
3867.00,79.85
3866.50,79.81
3866.00,79.79
3865.50,79.78
3865.00,79.75
3864.50,79.69
3864.00,79.62
3863.50,79.58
3863.00,79.53
3862.50,79.48
3862.00,79.41
3861.50,79.34
3861.00,79.28
3860.50,79.22
3860.00,79.16
3859.50,79.09
3859.00,79.00
3858.50,78.92
3858.00,78.83
3857.50,78.74
3857.00,78.64
3856.50,78.55
3856.00,78.49
3855.50,78.44
3855.00,78.34
3854.50,78.21
3854.00,78.10
3853.50,78.02
3853.00,77.93
3852.50,77.82
3852.00,77.69
3851.50,77.58
3851.00,77.49
3850.50,77.41
3850.00,77.31
3849.50,77.18
3849.00,77.05
3848.50,76.93
3848.00,76.81
3847.50,76.69
3847.00,76.57
3846.50,76.44
3846.00,76.30
3845.50,76.16
3845.00,76.02
3844.50,75.87
3844.00,75.70
3843.50,75.54
3843.00,75.41
3842.50,75.29
3842.00,75.17
3841.50,75.04
3841.00,74.92
3840.50,74.79
3840.00,74.67
3839.50,74.56
3839.00,74.46
3838.50,74.33
3838.00,74.17
3837.50,74.03
3837.00,73.95
3836.50,73.89
3836.00,73.81
3835.50,73.70
3835.00,73.57
3834.50,73.43
3834.00,73.33
3833.50,73.26
3833.00,73.19
3832.50,73.12
3832.00,73.05
3831.50,72.97
3831.00,72.89
3830.50,72.83
3830.00,72.78
3829.50,72.71
3829.00,72.65
3828.50,72.58
3828.00,72.52
3827.50,72.48
3827.00,72.44
3826.50,72.40
3826.00,72.36
3825.50,72.33
3825.00,72.29
3824.50,72.24
3824.00,72.19
3823.50,72.13
3823.00,72.07
3822.50,72.02
3822.00,72.02
3821.50,72.06
3821.00,72.05
3820.50,71.99
3820.00,71.94
3819.50,71.90
3819.00,71.85
3818.50,71.79
3818.00,71.72
3817.50,71.65
3817.00,71.61
3816.50,71.56
3816.00,71.48
3815.50,71.40
3815.00,71.35
3814.50,71.31
3814.00,71.25
3813.50,71.18
3813.00,71.11
3812.50,71.02
3812.00,70.94
3811.50,70.86
3811.00,70.78
3810.50,70.69
3810.00,70.60
3809.50,70.51
3809.00,70.42
3808.50,70.34
3808.00,70.26
3807.50,70.19
3807.00,70.08
3806.50,69.98
3806.00,69.89
3805.50,69.82
3805.00,69.74
3804.50,69.64
3804.00,69.53
3803.50,69.43
3803.00,69.35
3802.50,69.28
3802.00,69.19
3801.50,69.07
3801.00,68.94
3800.50,68.86
3800.00,68.80
3799.50,68.73
3799.00,68.63
3798.50,68.52
3798.00,68.40
3797.50,68.28
3797.00,68.14
3796.50,68.00
3796.00,67.86
3795.50,67.74
3795.00,67.63
3794.50,67.50
3794.00,67.36
3793.50,67.21
3793.00,67.04
3792.50,66.88
3792.00,66.71
3791.50,66.53
3791.00,66.34
3790.50,66.15
3790.00,65.95
3789.50,65.75
3789.00,65.55
3788.50,65.35
3788.00,65.14
3787.50,64.94
3787.00,64.73
3786.50,64.52
3786.00,64.31
3785.50,64.10
3785.00,63.86
3784.50,63.63
3784.00,63.42
3783.50,63.23
3783.00,63.04
3782.50,62.85
3782.00,62.66
3781.50,62.47
3781.00,62.28
3780.50,62.09
3780.00,61.88
3779.50,61.67
3779.00,61.48
3778.50,61.31
3778.00,61.16
3777.50,61.00
3777.00,60.83
3776.50,60.67
3776.00,60.50
3775.50,60.34
3775.00,60.18
3774.50,60.02
3774.00,59.87
3773.50,59.73
3773.00,59.58
3772.50,59.45
3772.00,59.32
3771.50,59.20
3771.00,59.09
3770.50,58.96
3770.00,58.82
3769.50,58.69
3769.00,58.58
3768.50,58.50
3768.00,58.41
3767.50,58.32
3767.00,58.23
3766.50,58.15
3766.00,58.08
3765.50,58.01
3765.00,57.96
3764.50,57.92
3764.00,57.88
3763.50,57.84
3763.00,57.80
3762.50,57.76
3762.00,57.72
3761.50,57.67
3761.00,57.64
3760.50,57.62
3760.00,57.64
3759.50,57.65
3759.00,57.65
3758.50,57.65
3758.00,57.65
3757.50,57.65
3757.00,57.68
3756.50,57.71
3756.00,57.74
3755.50,57.76
3755.00,57.77
3754.50,57.78
3754.00,57.78
3753.50,57.80
3753.00,57.87
3752.50,58.00
3752.00,58.12
3751.50,58.21
3751.00,58.29
3750.50,58.39
3750.00,58.51
3749.50,58.62
3749.00,58.70
3748.50,58.77
3748.00,58.84
3747.50,58.91
3747.00,58.95
3746.50,58.98
3746.00,58.98
3745.50,59.01
3745.00,59.19
3744.50,59.48
3744.00,59.68
3743.50,59.80
3743.00,59.90
3742.50,59.98
3742.00,60.09
3741.50,60.21
3741.00,60.32
3740.50,60.41
3740.00,60.47
3739.50,60.53
3739.00,60.58
3738.50,60.63
3738.00,60.66
3737.50,60.68
3737.00,60.67
3736.50,60.65
3736.00,60.63
3735.50,60.58
3735.00,60.52
3734.50,60.47
3734.00,60.44
3733.50,60.41
3733.00,60.34
3732.50,60.22
3732.00,60.05
3731.50,59.89
3731.00,59.76
3730.50,59.62
3730.00,59.48
3729.50,59.31
3729.00,59.14
3728.50,58.97
3728.00,58.79
3727.50,58.58
3727.00,58.34
3726.50,58.08
3726.00,57.83
3725.50,57.59
3725.00,57.37
3724.50,57.18
3724.00,56.98
3723.50,56.78
3723.00,56.54
3722.50,56.26
3722.00,56.01
3721.50,55.81
3721.00,55.65
3720.50,55.50
3720.00,55.32
3719.50,55.11
3719.00,54.89
3718.50,54.68
3718.00,54.50
3717.50,54.32
3717.00,54.14
3716.50,53.94
3716.00,53.73
3715.50,53.51
3715.00,53.30
3714.50,53.09
3714.00,52.89
3713.50,52.68
3713.00,52.43
3712.50,52.10
3712.00,51.77
3711.50,51.52
3711.00,51.34
3710.50,51.15
3710.00,50.90
3709.50,50.61
3709.00,50.36
3708.50,50.16
3708.00,49.99
3707.50,49.82
3707.00,49.63
3706.50,49.44
3706.00,49.25
3705.50,49.08
3705.00,48.93
3704.50,48.78
3704.00,48.65
3703.50,48.52
3703.00,48.39
3702.50,48.27
3702.00,48.16
3701.50,48.09
3701.00,48.06
3700.50,48.05
3700.00,48.04
3699.50,48.05
3699.00,48.06
3698.50,48.08
3698.00,48.12
3697.50,48.17
3697.00,48.25
3696.50,48.33
3696.00,48.42
3695.50,48.51
3695.00,48.60
3694.50,48.70
3694.00,48.80
3693.50,48.90
3693.00,49.00
3692.50,49.11
3692.00,49.27
3691.50,49.48
3691.00,49.68
3690.50,49.83
3690.00,49.95
3689.50,50.10
3689.00,50.30
3688.50,50.50
3688.00,50.63
3687.50,50.72
3687.00,50.80
3686.50,50.88
3686.00,50.97
3685.50,51.07
3685.00,51.17
3684.50,51.26
3684.00,51.34
3683.50,51.41
3683.00,51.47
3682.50,51.53
3682.00,51.58
3681.50,51.61
3681.00,51.64
3680.50,51.67
3680.00,51.69
3679.50,51.71
3679.00,51.72
3678.50,51.72
3678.00,51.70
3677.50,51.68
3677.00,51.64
3676.50,51.60
3676.00,51.57
3675.50,51.46
3675.00,51.34
3674.50,51.28
3674.00,51.24
3673.50,51.20
3673.00,51.15
3672.50,51.08
3672.00,50.99
3671.50,50.86
3671.00,50.70
3670.50,50.54
3670.00,50.40
3669.50,50.27
3669.00,50.13
3668.50,49.99
3668.00,49.87
3667.50,49.75
3667.00,49.63
3666.50,49.49
3666.00,49.33
3665.50,49.16
3665.00,48.99
3664.50,48.82
3664.00,48.65
3663.50,48.49
3663.00,48.32
3662.50,48.15
3662.00,47.98
3661.50,47.81
3661.00,47.64
3660.50,47.45
3660.00,47.26
3659.50,47.06
3659.00,46.88
3658.50,46.71
3658.00,46.55
3657.50,46.36
3657.00,46.13
3656.50,45.85
3656.00,45.60
3655.50,45.44
3655.00,45.32
3654.50,45.20
3654.00,45.07
3653.50,44.93
3653.00,44.79
3652.50,44.66
3652.00,44.51
3651.50,44.36
3651.00,44.22
3650.50,44.06
3650.00,43.90
3649.50,43.75
3649.00,43.62
3648.50,43.51
3648.00,43.40
3647.50,43.28
3647.00,43.19
3646.50,43.15
3646.00,43.13
3645.50,43.12
3645.00,43.10
3644.50,43.07
3644.00,43.04
3643.50,43.02
3643.00,43.00
3642.50,42.98
3642.00,42.97
3641.50,42.97
3641.00,42.98
3640.50,42.99
3640.00,43.02
3639.50,43.05
3639.00,43.09
3638.50,43.13
3638.00,43.18
3637.50,43.24
3637.00,43.30
3636.50,43.36
3636.00,43.42
3635.50,43.48
3635.00,43.55
3634.50,43.63
3634.00,43.72
3633.50,43.81
3633.00,43.90
3632.50,43.99
3632.00,44.07
3631.50,44.16
3631.00,44.23
3630.50,44.31
3630.00,44.38
3629.50,44.48
3629.00,44.56
3628.50,44.62
3628.00,44.70
3627.50,44.77
3627.00,44.85
3626.50,44.92
3626.00,44.98
3625.50,45.03
3625.00,45.08
3624.50,45.12
3624.00,45.16
3623.50,45.19
3623.00,45.22
3622.50,45.25
3622.00,45.28
3621.50,45.30
3621.00,45.31
3620.50,45.31
3620.00,45.29
3619.50,45.27
3619.00,45.25
3618.50,45.24
3618.00,45.23
3617.50,45.23
3617.00,45.23
3616.50,45.25
3616.00,45.26
3615.50,45.23
3615.00,45.19
3614.50,45.14
3614.00,45.11
3613.50,45.07
3613.00,45.01
3612.50,44.94
3612.00,44.90
3611.50,44.89
3611.00,44.90
3610.50,44.89
3610.00,44.83
3609.50,44.73
3609.00,44.63
3608.50,44.57
3608.00,44.52
3607.50,44.46
3607.00,44.40
3606.50,44.35
3606.00,44.31
3605.50,44.29
3605.00,44.25
3604.50,44.20
3604.00,44.14
3603.50,44.07
3603.00,44.01
3602.50,43.95
3602.00,43.89
3601.50,43.82
3601.00,43.76
3600.50,43.70
3600.00,43.65
3599.50,43.59
3599.00,43.52
3598.50,43.44
3598.00,43.36
3597.50,43.30
3597.00,43.26
3596.50,43.20
3596.00,43.13
3595.50,43.06
3595.00,43.01
3594.50,42.98
3594.00,42.95
3593.50,42.92
3593.00,42.88
3592.50,42.85
3592.00,42.83
3591.50,42.82
3591.00,42.81
3590.50,42.80
3590.00,42.79
3589.50,42.76
3589.00,42.71
3588.50,42.66
3588.00,42.63
3587.50,42.62
3587.00,42.59
3586.50,42.55
3586.00,42.54
3585.50,42.56
3585.00,42.59
3584.50,42.62
3584.00,42.66
3583.50,42.73
3583.00,42.80
3582.50,42.88
3582.00,42.96
3581.50,43.04
3581.00,43.11
3580.50,43.17
3580.00,43.23
3579.50,43.29
3579.00,43.35
3578.50,43.42
3578.00,43.48
3577.50,43.53
3577.00,43.58
3576.50,43.63
3576.00,43.68
3575.50,43.73
3575.00,43.78
3574.50,43.82
3574.00,43.87
3573.50,43.91
3573.00,43.96
3572.50,44.02
3572.00,44.07
3571.50,44.12
3571.00,44.18
3570.50,44.23
3570.00,44.28
3569.50,44.33
3569.00,44.37
3568.50,44.40
3568.00,44.43
3567.50,44.46
3567.00,44.50
3566.50,44.53
3566.00,44.55
3565.50,44.61
3565.00,44.68
3564.50,44.75
3564.00,44.81
3563.50,44.85
3563.00,44.89
3562.50,44.94
3562.00,44.98
3561.50,45.01
3561.00,45.04
3560.50,45.05
3560.00,45.06
3559.50,45.08
3559.00,45.12
3558.50,45.15
3558.00,45.18
3557.50,45.20
3557.00,45.21
3556.50,45.23
3556.00,45.24
3555.50,45.26
3555.00,45.28
3554.50,45.30
3554.00,45.31
3553.50,45.32
3553.00,45.32
3552.50,45.32
3552.00,45.30
3551.50,45.30
3551.00,45.30
3550.50,45.31
3550.00,45.32
3549.50,45.33
3549.00,45.34
3548.50,45.35
3548.00,45.35
3547.50,45.34
3547.00,45.33
3546.50,45.33
3546.00,45.33
3545.50,45.32
3545.00,45.30
3544.50,45.28
3544.00,45.27
3543.50,45.27
3543.00,45.25
3542.50,45.23
3542.00,45.22
3541.50,45.20
3541.00,45.19
3540.50,45.18
3540.00,45.16
3539.50,45.15
3539.00,45.14
3538.50,45.14
3538.00,45.14
3537.50,45.14
3537.00,45.13
3536.50,45.09
3536.00,45.06
3535.50,45.04
3535.00,45.03
3534.50,45.03
3534.00,45.02
3533.50,45.02
3533.00,45.01
3532.50,45.00
3532.00,45.00
3531.50,44.99
3531.00,44.98
3530.50,44.98
3530.00,44.97
3529.50,44.97
3529.00,44.96
3528.50,44.95
3528.00,44.95
3527.50,44.94
3527.00,44.93
3526.50,44.93
3526.00,44.94
3525.50,44.95
3525.00,44.97
3524.50,44.98
3524.00,44.98
3523.50,44.96
3523.00,44.93
3522.50,44.91
3522.00,44.91
3521.50,44.91
3521.00,44.92
3520.50,44.93
3520.00,44.94
3519.50,44.94
3519.00,44.95
3518.50,44.96
3518.00,44.96
3517.50,44.97
3517.00,44.98
3516.50,44.98
3516.00,45.00
3515.50,45.01
3515.00,45.04
3514.50,45.06
3514.00,45.07
3513.50,45.08
3513.00,45.09
3512.50,45.09
3512.00,45.10
3511.50,45.11
3511.00,45.13
3510.50,45.14
3510.00,45.14
3509.50,45.13
3509.00,45.13
3508.50,45.14
3508.00,45.17
3507.50,45.19
3507.00,45.22
3506.50,45.24
3506.00,45.26
3505.50,45.28
3505.00,45.31
3504.50,45.33
3504.00,45.34
3503.50,45.35
3503.00,45.35
3502.50,45.34
3502.00,45.34
3501.50,45.35
3501.00,45.36
3500.50,45.37
3500.00,45.39
3499.50,45.41
3499.00,45.43
3498.50,45.46
3498.00,45.48
3497.50,45.50
3497.00,45.50
3496.50,45.51
3496.00,45.52
3495.50,45.53
3495.00,45.54
3494.50,45.56
3494.00,45.57
3493.50,45.58
3493.00,45.60
3492.50,45.61
3492.00,45.63
3491.50,45.64
3491.00,45.66
3490.50,45.68
3490.00,45.70
3489.50,45.73
3489.00,45.75
3488.50,45.76
3488.00,45.78
3487.50,45.79
3487.00,45.82
3486.50,45.84
3486.00,45.85
3485.50,45.86
3485.00,45.87
3484.50,45.89
3484.00,45.92
3483.50,45.95
3483.00,45.97
3482.50,45.98
3482.00,45.99
3481.50,46.01
3481.00,46.04
3480.50,46.07
3480.00,46.09
3479.50,46.10
3479.00,46.12
3478.50,46.13
3478.00,46.14
3477.50,46.16
3477.00,46.18
3476.50,46.21
3476.00,46.23
3475.50,46.25
3475.00,46.26
3474.50,46.27
3474.00,46.29
3473.50,46.31
3473.00,46.34
3472.50,46.36
3472.00,46.39
3471.50,46.42
3471.00,46.44
3470.50,46.47
3470.00,46.50
3469.50,46.52
3469.00,46.55
3468.50,46.57
3468.00,46.60
3467.50,46.61
3467.00,46.63
3466.50,46.64
3466.00,46.65
3465.50,46.67
3465.00,46.70
3464.50,46.72
3464.00,46.74
3463.50,46.77
3463.00,46.79
3462.50,46.81
3462.00,46.84
3461.50,46.87
3461.00,46.90
3460.50,46.93
3460.00,46.95
3459.50,46.97
3459.00,46.99
3458.50,47.01
3458.00,47.03
3457.50,47.06
3457.00,47.09
3456.50,47.12
3456.00,47.15
3455.50,47.17
3455.00,47.20
3454.50,47.23
3454.00,47.26
3453.50,47.29
3453.00,47.32
3452.50,47.35
3452.00,47.38
3451.50,47.41
3451.00,47.44
3450.50,47.47
3450.00,47.51
3449.50,47.54
3449.00,47.59
3448.50,47.63
3448.00,47.66
3447.50,47.67
3447.00,47.68
3446.50,47.69
3446.00,47.72
3445.50,47.76
3445.00,47.80
3444.50,47.84
3444.00,47.88
3443.50,47.91
3443.00,47.93
3442.50,47.95
3442.00,47.97
3441.50,48.00
3441.00,48.03
3440.50,48.07
3440.00,48.10
3439.50,48.14
3439.00,48.17
3438.50,48.21
3438.00,48.25
3437.50,48.28
3437.00,48.31
3436.50,48.34
3436.00,48.36
3435.50,48.39
3435.00,48.42
3434.50,48.45
3434.00,48.47
3433.50,48.50
3433.00,48.53
3432.50,48.56
3432.00,48.59
3431.50,48.62
3431.00,48.65
3430.50,48.68
3430.00,48.71
3429.50,48.74
3429.00,48.77
3428.50,48.80
3428.00,48.82
3427.50,48.84
3427.00,48.87
3426.50,48.89
3426.00,48.92
3425.50,48.95
3425.00,48.98
3424.50,49.01
3424.00,49.04
3423.50,49.07
3423.00,49.10
3422.50,49.13
3422.00,49.17
3421.50,49.20
3421.00,49.23
3420.50,49.24
3420.00,49.26
3419.50,49.28
3419.00,49.31
3418.50,49.34
3418.00,49.36
3417.50,49.39
3417.00,49.42
3416.50,49.45
3416.00,49.48
3415.50,49.52
3415.00,49.55
3414.50,49.59
3414.00,49.62
3413.50,49.65
3413.00,49.67
3412.50,49.69
3412.00,49.72
3411.50,49.74
3411.00,49.77
3410.50,49.81
3410.00,49.84
3409.50,49.87
3409.00,49.90
3408.50,49.92
3408.00,49.94
3407.50,49.97
3407.00,50.00
3406.50,50.03
3406.00,50.06
3405.50,50.09
3405.00,50.13
3404.50,50.16
3404.00,50.20
3403.50,50.24
3403.00,50.27
3402.50,50.31
3402.00,50.35
3401.50,50.38
3401.00,50.41
3400.50,50.44
3400.00,50.48
3399.50,50.51
3399.00,50.54
3398.50,50.58
3398.00,50.60
3397.50,50.63
3397.00,50.66
3396.50,50.69
3396.00,50.72
3395.50,50.76
3395.00,50.80
3394.50,50.84
3394.00,50.88
3393.50,50.92
3393.00,50.95
3392.50,50.98
3392.00,51.01
3391.50,51.04
3391.00,51.07
3390.50,51.10
3390.00,51.13
3389.50,51.16
3389.00,51.19
3388.50,51.22
3388.00,51.25
3387.50,51.28
3387.00,51.32
3386.50,51.35
3386.00,51.38
3385.50,51.41
3385.00,51.44
3384.50,51.47
3384.00,51.50
3383.50,51.53
3383.00,51.57
3382.50,51.60
3382.00,51.63
3381.50,51.67
3381.00,51.71
3380.50,51.74
3380.00,51.76
3379.50,51.79
3379.00,51.82
3378.50,51.85
3378.00,51.88
3377.50,51.92
3377.00,51.95
3376.50,51.98
3376.00,52.00
3375.50,52.03
3375.00,52.06
3374.50,52.09
3374.00,52.12
3373.50,52.15
3373.00,52.19
3372.50,52.22
3372.00,52.26
3371.50,52.30
3371.00,52.33
3370.50,52.37
3370.00,52.40
3369.50,52.44
3369.00,52.47
3368.50,52.50
3368.00,52.53
3367.50,52.56
3367.00,52.59
3366.50,52.62
3366.00,52.64
3365.50,52.67
3365.00,52.69
3364.50,52.72
3364.00,52.74
3363.50,52.78
3363.00,52.81
3362.50,52.85
3362.00,52.88
3361.50,52.92
3361.00,52.95
3360.50,52.99
3360.00,53.02
3359.50,53.04
3359.00,53.07
3358.50,53.10
3358.00,53.13
3357.50,53.16
3357.00,53.19
3356.50,53.22
3356.00,53.25
3355.50,53.28
3355.00,53.31
3354.50,53.35
3354.00,53.38
3353.50,53.42
3353.00,53.46
3352.50,53.50
3352.00,53.53
3351.50,53.57
3351.00,53.60
3350.50,53.63
3350.00,53.66
3349.50,53.69
3349.00,53.72
3348.50,53.75
3348.00,53.79
3347.50,53.82
3347.00,53.86
3346.50,53.90
3346.00,53.94
3345.50,53.98
3345.00,54.02
3344.50,54.06
3344.00,54.11
3343.50,54.15
3343.00,54.19
3342.50,54.23
3342.00,54.27
3341.50,54.31
3341.00,54.35
3340.50,54.40
3340.00,54.44
3339.50,54.49
3339.00,54.53
3338.50,54.58
3338.00,54.62
3337.50,54.66
3337.00,54.69
3336.50,54.73
3336.00,54.76
3335.50,54.81
3335.00,54.85
3334.50,54.89
3334.00,54.92
3333.50,54.96
3333.00,55.01
3332.50,55.05
3332.00,55.09
3331.50,55.13
3331.00,55.17
3330.50,55.21
3330.00,55.25
3329.50,55.29
3329.00,55.33
3328.50,55.38
3328.00,55.42
3327.50,55.46
3327.00,55.51
3326.50,55.55
3326.00,55.58
3325.50,55.62
3325.00,55.65
3324.50,55.69
3324.00,55.72
3323.50,55.76
3323.00,55.80
3322.50,55.84
3322.00,55.87
3321.50,55.91
3321.00,55.95
3320.50,55.99
3320.00,56.03
3319.50,56.07
3319.00,56.12
3318.50,56.16
3318.00,56.20
3317.50,56.24
3317.00,56.28
3316.50,56.33
3316.00,56.37
3315.50,56.42
3315.00,56.47
3314.50,56.51
3314.00,56.56
3313.50,56.60
3313.00,56.64
3312.50,56.68
3312.00,56.73
3311.50,56.77
3311.00,56.82
3310.50,56.87
3310.00,56.92
3309.50,56.97
3309.00,57.01
3308.50,57.05
3308.00,57.08
3307.50,57.12
3307.00,57.16
3306.50,57.20
3306.00,57.24
3305.50,57.29
3305.00,57.33
3304.50,57.36
3304.00,57.40
3303.50,57.43
3303.00,57.47
3302.50,57.50
3302.00,57.54
3301.50,57.58
3301.00,57.61
3300.50,57.65
3300.00,57.69
3299.50,57.72
3299.00,57.76
3298.50,57.80
3298.00,57.84
3297.50,57.88
3297.00,57.91
3296.50,57.94
3296.00,57.97
3295.50,58.00
3295.00,58.03
3294.50,58.07
3294.00,58.10
3293.50,58.13
3293.00,58.16
3292.50,58.19
3292.00,58.22
3291.50,58.24
3291.00,58.27
3290.50,58.29
3290.00,58.32
3289.50,58.34
3289.00,58.37
3288.50,58.40
3288.00,58.42
3287.50,58.45
3287.00,58.48
3286.50,58.51
3286.00,58.53
3285.50,58.56
3285.00,58.59
3284.50,58.61
3284.00,58.64
3283.50,58.66
3283.00,58.69
3282.50,58.71
3282.00,58.74
3281.50,58.77
3281.00,58.79
3280.50,58.82
3280.00,58.84
3279.50,58.86
3279.00,58.88
3278.50,58.91
3278.00,58.94
3277.50,58.96
3277.00,58.99
3276.50,59.01
3276.00,59.04
3275.50,59.06
3275.00,59.08
3274.50,59.11
3274.00,59.13
3273.50,59.15
3273.00,59.17
3272.50,59.19
3272.00,59.22
3271.50,59.24
3271.00,59.25
3270.50,59.27
3270.00,59.29
3269.50,59.30
3269.00,59.32
3268.50,59.34
3268.00,59.35
3267.50,59.37
3267.00,59.39
3266.50,59.40
3266.00,59.42
3265.50,59.43
3265.00,59.45
3264.50,59.46
3264.00,59.48
3263.50,59.49
3263.00,59.51
3262.50,59.52
3262.00,59.54
3261.50,59.55
3261.00,59.57
3260.50,59.58
3260.00,59.59
3259.50,59.60
3259.00,59.62
3258.50,59.63
3258.00,59.64
3257.50,59.65
3257.00,59.67
3256.50,59.68
3256.00,59.69
3255.50,59.70
3255.00,59.71
3254.50,59.72
3254.00,59.72
3253.50,59.73
3253.00,59.74
3252.50,59.75
3252.00,59.76
3251.50,59.77
3251.00,59.77
3250.50,59.78
3250.00,59.79
3249.50,59.81
3249.00,59.82
3248.50,59.83
3248.00,59.84
3247.50,59.85
3247.00,59.86
3246.50,59.87
3246.00,59.88
3245.50,59.88
3245.00,59.88
3244.50,59.89
3244.00,59.89
3243.50,59.90
3243.00,59.91
3242.50,59.91
3242.00,59.92
3241.50,59.93
3241.00,59.93
3240.50,59.94
3240.00,59.94
3239.50,59.95
3239.00,59.96
3238.50,59.96
3238.00,59.97
3237.50,59.97
3237.00,59.98
3236.50,59.98
3236.00,59.98
3235.50,59.99
3235.00,59.99
3234.50,60.00
3234.00,60.00
3233.50,60.01
3233.00,60.01
3232.50,60.00
3232.00,60.00
3231.50,60.00
3231.00,59.99
3230.50,59.99
3230.00,59.99
3229.50,59.99
3229.00,59.99
3228.50,59.99
3228.00,59.99
3227.50,59.99
3227.00,59.99
3226.50,59.99
3226.00,59.99
3225.50,59.98
3225.00,59.99
3224.50,59.99
3224.00,59.99
3223.50,59.99
3223.00,60.00
3222.50,60.00
3222.00,60.00
3221.50,60.00
3221.00,60.01
3220.50,60.02
3220.00,60.02
3219.50,60.02
3219.00,60.03
3218.50,60.03
3218.00,60.03
3217.50,60.03
3217.00,60.03
3216.50,60.04
3216.00,60.05
3215.50,60.06
3215.00,60.06
3214.50,60.06
3214.00,60.06
3213.50,60.06
3213.00,60.05
3212.50,60.05
3212.00,60.05
3211.50,60.05
3211.00,60.05
3210.50,60.05
3210.00,60.05
3209.50,60.05
3209.00,60.04
3208.50,60.03
3208.00,60.03
3207.50,60.03
3207.00,60.02
3206.50,60.02
3206.00,60.01
3205.50,60.00
3205.00,59.99
3204.50,59.98
3204.00,59.97
3203.50,59.96
3203.00,59.95
3202.50,59.94
3202.00,59.93
3201.50,59.92
3201.00,59.90
3200.50,59.89
3200.00,59.87
3199.50,59.86
3199.00,59.85
3198.50,59.83
3198.00,59.81
3197.50,59.79
3197.00,59.77
3196.50,59.75
3196.00,59.73
3195.50,59.70
3195.00,59.68
3194.50,59.65
3194.00,59.62
3193.50,59.59
3193.00,59.55
3192.50,59.52
3192.00,59.48
3191.50,59.44
3191.00,59.40
3190.50,59.36
3190.00,59.32
3189.50,59.27
3189.00,59.23
3188.50,59.19
3188.00,59.15
3187.50,59.12
3187.00,59.09
3186.50,59.07
3186.00,59.06
3185.50,59.05
3185.00,59.05
3184.50,59.07
3184.00,59.08
3183.50,59.11
3183.00,59.14
3182.50,59.17
3182.00,59.20
3181.50,59.24
3181.00,59.27
3180.50,59.31
3180.00,59.34
3179.50,59.37
3179.00,59.39
3178.50,59.41
3178.00,59.43
3177.50,59.44
3177.00,59.45
3176.50,59.46
3176.00,59.46
3175.50,59.46
3175.00,59.46
3174.50,59.45
3174.00,59.44
3173.50,59.43
3173.00,59.42
3172.50,59.41
3172.00,59.39
3171.50,59.37
3171.00,59.35
3170.50,59.33
3170.00,59.30
3169.50,59.28
3169.00,59.25
3168.50,59.22
3168.00,59.19
3167.50,59.16
3167.00,59.12
3166.50,59.08
3166.00,59.04
3165.50,59.00
3165.00,58.96
3164.50,58.92
3164.00,58.87
3163.50,58.83
3163.00,58.78
3162.50,58.73
3162.00,58.68
3161.50,58.62
3161.00,58.57
3160.50,58.51
3160.00,58.45
3159.50,58.40
3159.00,58.34
3158.50,58.28
3158.00,58.22
3157.50,58.15
3157.00,58.09
3156.50,58.02
3156.00,57.96
3155.50,57.89
3155.00,57.82
3154.50,57.76
3154.00,57.68
3153.50,57.61
3153.00,57.53
3152.50,57.45
3152.00,57.37
3151.50,57.29
3151.00,57.20
3150.50,57.11
3150.00,57.02
3149.50,56.93
3149.00,56.84
3148.50,56.75
3148.00,56.66
3147.50,56.56
3147.00,56.47
3146.50,56.37
3146.00,56.27
3145.50,56.17
3145.00,56.07
3144.50,55.96
3144.00,55.85
3143.50,55.74
3143.00,55.63
3142.50,55.51
3142.00,55.39
3141.50,55.28
3141.00,55.16
3140.50,55.04
3140.00,54.91
3139.50,54.78
3139.00,54.65
3138.50,54.51
3138.00,54.37
3137.50,54.22
3137.00,54.08
3136.50,53.93
3136.00,53.78
3135.50,53.64
3135.00,53.49
3134.50,53.34
3134.00,53.19
3133.50,53.03
3133.00,52.87
3132.50,52.72
3132.00,52.56
3131.50,52.40
3131.00,52.25
3130.50,52.09
3130.00,51.93
3129.50,51.77
3129.00,51.61
3128.50,51.45
3128.00,51.29
3127.50,51.13
3127.00,50.98
3126.50,50.82
3126.00,50.67
3125.50,50.52
3125.00,50.37
3124.50,50.22
3124.00,50.08
3123.50,49.95
3123.00,49.81
3122.50,49.68
3122.00,49.55
3121.50,49.42
3121.00,49.30
3120.50,49.19
3120.00,49.07
3119.50,48.96
3119.00,48.85
3118.50,48.74
3118.00,48.63
3117.50,48.54
3117.00,48.45
3116.50,48.36
3116.00,48.27
3115.50,48.18
3115.00,48.10
3114.50,48.02
3114.00,47.95
3113.50,47.88
3113.00,47.82
3112.50,47.76
3112.00,47.70
3111.50,47.65
3111.00,47.61
3110.50,47.57
3110.00,47.54
3109.50,47.50
3109.00,47.47
3108.50,47.44
3108.00,47.41
3107.50,47.38
3107.00,47.36
3106.50,47.33
3106.00,47.32
3105.50,47.30
3105.00,47.29
3104.50,47.28
3104.00,47.27
3103.50,47.26
3103.00,47.26
3102.50,47.26
3102.00,47.26
3101.50,47.27
3101.00,47.27
3100.50,47.27
3100.00,47.27
3099.50,47.26
3099.00,47.25
3098.50,47.25
3098.00,47.24
3097.50,47.23
3097.00,47.23
3096.50,47.23
3096.00,47.23
3095.50,47.22
3095.00,47.22
3094.50,47.21
3094.00,47.20
3093.50,47.19
3093.00,47.18
3092.50,47.17
3092.00,47.16
3091.50,47.15
3091.00,47.13
3090.50,47.11
3090.00,47.08
3089.50,47.06
3089.00,47.03
3088.50,47.00
3088.00,46.97
3087.50,46.94
3087.00,46.90
3086.50,46.87
3086.00,46.83
3085.50,46.79
3085.00,46.75
3084.50,46.70
3084.00,46.65
3083.50,46.60
3083.00,46.54
3082.50,46.49
3082.00,46.43
3081.50,46.37
3081.00,46.31
3080.50,46.24
3080.00,46.17
3079.50,46.10
3079.00,46.03
3078.50,45.95
3078.00,45.86
3077.50,45.77
3077.00,45.68
3076.50,45.59
3076.00,45.49
3075.50,45.38
3075.00,45.28
3074.50,45.17
3074.00,45.05
3073.50,44.94
3073.00,44.82
3072.50,44.69
3072.00,44.56
3071.50,44.42
3071.00,44.28
3070.50,44.13
3070.00,43.97
3069.50,43.81
3069.00,43.64
3068.50,43.47
3068.00,43.28
3067.50,43.08
3067.00,42.86
3066.50,42.62
3066.00,42.38
3065.50,42.13
3065.00,41.87
3064.50,41.59
3064.00,41.30
3063.50,40.99
3063.00,40.67
3062.50,40.33
3062.00,39.98
3061.50,39.61
3061.00,39.24
3060.50,38.85
3060.00,38.46
3059.50,38.06
3059.00,37.67
3058.50,37.28
3058.00,36.90
3057.50,36.53
3057.00,36.18
3056.50,35.84
3056.00,35.54
3055.50,35.28
3055.00,35.07
3054.50,34.89
3054.00,34.77
3053.50,34.70
3053.00,34.69
3052.50,34.75
3052.00,34.87
3051.50,35.05
3051.00,35.29
3050.50,35.58
3050.00,35.92
3049.50,36.30
3049.00,36.71
3048.50,37.14
3048.00,37.57
3047.50,37.99
3047.00,38.40
3046.50,38.78
3046.00,39.14
3045.50,39.47
3045.00,39.77
3044.50,40.04
3044.00,40.27
3043.50,40.49
3043.00,40.68
3042.50,40.84
3042.00,40.98
3041.50,41.11
3041.00,41.22
3040.50,41.31
3040.00,41.39
3039.50,41.46
3039.00,41.52
3038.50,41.57
3038.00,41.61
3037.50,41.65
3037.00,41.69
3036.50,41.72
3036.00,41.74
3035.50,41.74
3035.00,41.74
3034.50,41.73
3034.00,41.71
3033.50,41.68
3033.00,41.64
3032.50,41.59
3032.00,41.53
3031.50,41.47
3031.00,41.40
3030.50,41.31
3030.00,41.22
3029.50,41.11
3029.00,41.00
3028.50,40.88
3028.00,40.74
3027.50,40.60
3027.00,40.44
3026.50,40.28
3026.00,40.11
3025.50,39.92
3025.00,39.71
3024.50,39.49
3024.00,39.25
3023.50,38.99
3023.00,38.73
3022.50,38.45
3022.00,38.17
3021.50,37.88
3021.00,37.59
3020.50,37.29
3020.00,36.98
3019.50,36.68
3019.00,36.37
3018.50,36.08
3018.00,35.79
3017.50,35.52
3017.00,35.26
3016.50,35.01
3016.00,34.77
3015.50,34.55
3015.00,34.35
3014.50,34.15
3014.00,33.97
3013.50,33.78
3013.00,33.61
3012.50,33.42
3012.00,33.24
3011.50,33.05
3011.00,32.85
3010.50,32.63
3010.00,32.40
3009.50,32.15
3009.00,31.88
3008.50,31.60
3008.00,31.30
3007.50,30.98
3007.00,30.64
3006.50,30.28
3006.00,29.91
3005.50,29.51
3005.00,29.10
3004.50,28.67
3004.00,28.22
3003.50,27.75
3003.00,27.27
3002.50,26.77
3002.00,26.26
3001.50,25.73
3001.00,25.19
3000.50,24.63
3000.00,24.05
2999.50,23.47
2999.00,22.87
2998.50,22.26
2998.00,21.63
2997.50,20.99
2997.00,20.33
2996.50,19.66
2996.00,18.98
2995.50,18.29
2995.00,17.59
2994.50,16.88
2994.00,16.16
2993.50,15.44
2993.00,14.72
2992.50,13.99
2992.00,13.25
2991.50,12.52
2991.00,11.78
2990.50,11.05
2990.00,10.32
2989.50,9.61
2989.00,8.90
2988.50,8.20
2988.00,7.52
2987.50,6.85
2987.00,6.22
2986.50,5.60
2986.00,5.01
2985.50,4.45
2985.00,3.92
2984.50,3.42
2984.00,2.96
2983.50,2.53
2983.00,2.15
2982.50,1.80
2982.00,1.49
2981.50,1.21
2981.00,0.97
2980.50,0.76
2980.00,0.58
2979.50,0.44
2979.00,0.32
2978.50,0.22
2978.00,0.14
2977.50,0.08
2977.00,0.05
2976.50,0.02
2976.00,0.01
2975.50,0.01
2975.00,0.01
2974.50,0.01
2974.00,0.02
2973.50,0.03
2973.00,0.04
2972.50,0.05
2972.00,0.06
2971.50,0.07
2971.00,0.07
2970.50,0.07
2970.00,0.08
2969.50,0.08
2969.00,0.08
2968.50,0.08
2968.00,0.08
2967.50,0.08
2967.00,0.08
2966.50,0.08
2966.00,0.08
2965.50,0.08
2965.00,0.08
2964.50,0.07
2964.00,0.07
2963.50,0.06
2963.00,0.06
2962.50,0.06
2962.00,0.07
2961.50,0.07
2961.00,0.08
2960.50,0.08
2960.00,0.09
2959.50,0.09
2959.00,0.08
2958.50,0.09
2958.00,0.09
2957.50,0.09
2957.00,0.09
2956.50,0.09
2956.00,0.09
2955.50,0.08
2955.00,0.07
2954.50,0.06
2954.00,0.05
2953.50,0.04
2953.00,0.03
2952.50,0.02
2952.00,0.03
2951.50,0.04
2951.00,0.04
2950.50,0.05
2950.00,0.06
2949.50,0.10
2949.00,0.14
2948.50,0.21
2948.00,0.29
2947.50,0.39
2947.00,0.51
2946.50,0.64
2946.00,0.79
2945.50,0.97
2945.00,1.18
2944.50,1.40
2944.00,1.65
2943.50,1.91
2943.00,2.20
2942.50,2.50
2942.00,2.82
2941.50,3.17
2941.00,3.53
2940.50,3.91
2940.00,4.30
2939.50,4.70
2939.00,5.12
2938.50,5.55
2938.00,5.97
2937.50,6.41
2937.00,6.85
2936.50,7.29
2936.00,7.73
2935.50,8.17
2935.00,8.61
2934.50,9.04
2934.00,9.46
2933.50,9.88
2933.00,10.29
2932.50,10.69
2932.00,11.07
2931.50,11.45
2931.00,11.81
2930.50,12.15
2930.00,12.48
2929.50,12.78
2929.00,13.06
2928.50,13.32
2928.00,13.56
2927.50,13.77
2927.00,13.97
2926.50,14.13
2926.00,14.27
2925.50,14.38
2925.00,14.46
2924.50,14.51
2924.00,14.53
2923.50,14.52
2923.00,14.48
2922.50,14.40
2922.00,14.29
2921.50,14.15
2921.00,13.98
2920.50,13.77
2920.00,13.53
2919.50,13.26
2919.00,12.96
2918.50,12.61
2918.00,12.23
2917.50,11.83
2917.00,11.39
2916.50,10.92
2916.00,10.42
2915.50,9.91
2915.00,9.38
2914.50,8.83
2914.00,8.28
2913.50,7.72
2913.00,7.17
2912.50,6.62
2912.00,6.09
2911.50,5.59
2911.00,5.12
2910.50,4.67
2910.00,4.27
2909.50,3.90
2909.00,3.57
2908.50,3.28
2908.00,3.03
2907.50,2.83
2907.00,2.66
2906.50,2.54
2906.00,2.45
2905.50,2.40
2905.00,2.38
2904.50,2.40
2904.00,2.44
2903.50,2.53
2903.00,2.65
2902.50,2.81
2902.00,3.00
2901.50,3.23
2901.00,3.50
2900.50,3.81
2900.00,4.15
2899.50,4.55
2899.00,4.98
2898.50,5.46
2898.00,5.97
2897.50,6.53
2897.00,7.12
2896.50,7.75
2896.00,8.40
2895.50,9.07
2895.00,9.78
2894.50,10.49
2894.00,11.23
2893.50,11.97
2893.00,12.73
2892.50,13.48
2892.00,14.23
2891.50,14.98
2891.00,15.73
2890.50,16.47
2890.00,17.20
2889.50,17.92
2889.00,18.63
2888.50,19.32
2888.00,20.00
2887.50,20.67
2887.00,21.33
2886.50,21.97
2886.00,22.60
2885.50,23.21
2885.00,23.81
2884.50,24.40
2884.00,24.97
2883.50,25.54
2883.00,26.09
2882.50,26.62
2882.00,27.15
2881.50,27.66
2881.00,28.16
2880.50,28.65
2880.00,29.13
2879.50,29.60
2879.00,30.07
2878.50,30.53
2878.00,30.98
2877.50,31.43
2877.00,31.87
2876.50,32.31
2876.00,32.74
2875.50,33.17
2875.00,33.60
2874.50,34.01
2874.00,34.43
2873.50,34.84
2873.00,35.25
2872.50,35.65
2872.00,36.05
2871.50,36.44
2871.00,36.82
2870.50,37.20
2870.00,37.57
2869.50,37.93
2869.00,38.28
2868.50,38.61
2868.00,38.94
2867.50,39.25
2867.00,39.56
2866.50,39.85
2866.00,40.13
2865.50,40.40
2865.00,40.66
2864.50,40.90
2864.00,41.14
2863.50,41.36
2863.00,41.57
2862.50,41.77
2862.00,41.96
2861.50,42.15
2861.00,42.32
2860.50,42.48
2860.00,42.63
2859.50,42.77
2859.00,42.91
2858.50,43.04
2858.00,43.16
2857.50,43.27
2857.00,43.38
2856.50,43.49
2856.00,43.59
2855.50,43.68
2855.00,43.77
2854.50,43.86
2854.00,43.94
2853.50,44.02
2853.00,44.10
2852.50,44.17
2852.00,44.24
2851.50,44.31
2851.00,44.37
2850.50,44.43
2850.00,44.49
2849.50,44.55
2849.00,44.61
2848.50,44.67
2848.00,44.73
2847.50,44.79
2847.00,44.85
2846.50,44.91
2846.00,44.97
2845.50,45.02
2845.00,45.08
2844.50,45.13
2844.00,45.18
2843.50,45.23
2843.00,45.28
2842.50,45.33
2842.00,45.39
2841.50,45.44
2841.00,45.51
2840.50,45.57
2840.00,45.64
2839.50,45.72
2839.00,45.80
2838.50,45.89
2838.00,45.98
2837.50,46.08
2837.00,46.19
2836.50,46.31
2836.00,46.42
2835.50,46.54
2835.00,46.66
2834.50,46.79
2834.00,46.91
2833.50,47.03
2833.00,47.16
2832.50,47.28
2832.00,47.40
2831.50,47.52
2831.00,47.63
2830.50,47.74
2830.00,47.84
2829.50,47.93
2829.00,48.02
2828.50,48.09
2828.00,48.16
2827.50,48.22
2827.00,48.27
2826.50,48.31
2826.00,48.34
2825.50,48.36
2825.00,48.37
2824.50,48.37
2824.00,48.36
2823.50,48.34
2823.00,48.32
2822.50,48.29
2822.00,48.25
2821.50,48.21
2821.00,48.15
2820.50,48.10
2820.00,48.03
2819.50,47.97
2819.00,47.91
2818.50,47.84
2818.00,47.77
2817.50,47.70
2817.00,47.63
2816.50,47.57
2816.00,47.50
2815.50,47.44
2815.00,47.39
2814.50,47.34
2814.00,47.29
2813.50,47.25
2813.00,47.22
2812.50,47.20
2812.00,47.18
2811.50,47.16
2811.00,47.15
2810.50,47.15
2810.00,47.15
2809.50,47.15
2809.00,47.17
2808.50,47.20
2808.00,47.22
2807.50,47.25
2807.00,47.29
2806.50,47.33
2806.00,47.36
2805.50,47.40
2805.00,47.45
2804.50,47.49
2804.00,47.53
2803.50,47.58
2803.00,47.63
2802.50,47.67
2802.00,47.72
2801.50,47.77
2801.00,47.83
2800.50,47.89
2800.00,47.94
2799.50,48.01
2799.00,48.08
2798.50,48.16
2798.00,48.24
2797.50,48.34
2797.00,48.45
2796.50,48.57
2796.00,48.70
2795.50,48.85
2795.00,49.02
2794.50,49.21
2794.00,49.41
2793.50,49.64
2793.00,49.90
2792.50,50.17
2792.00,50.48
2791.50,50.81
2791.00,51.17
2790.50,51.56
2790.00,51.98
2789.50,52.43
2789.00,52.90
2788.50,53.39
2788.00,53.90
2787.50,54.44
2787.00,54.99
2786.50,55.55
2786.00,56.11
2785.50,56.68
2785.00,57.26
2784.50,57.83
2784.00,58.40
2783.50,58.97
2783.00,59.53
2782.50,60.08
2782.00,60.63
2781.50,61.16
2781.00,61.69
2780.50,62.20
2780.00,62.70
2779.50,63.19
2779.00,63.66
2778.50,64.12
2778.00,64.57
2777.50,65.00
2777.00,65.43
2776.50,65.84
2776.00,66.23
2775.50,66.62
2775.00,67.00
2774.50,67.37
2774.00,67.73
2773.50,68.08
2773.00,68.42
2772.50,68.74
2772.00,69.06
2771.50,69.38
2771.00,69.68
2770.50,69.98
2770.00,70.26
2769.50,70.54
2769.00,70.81
2768.50,71.07
2768.00,71.32
2767.50,71.56
2767.00,71.80
2766.50,72.03
2766.00,72.26
2765.50,72.48
2765.00,72.69
2764.50,72.89
2764.00,73.09
2763.50,73.28
2763.00,73.47
2762.50,73.65
2762.00,73.83
2761.50,73.99
2761.00,74.16
2760.50,74.32
2760.00,74.47
2759.50,74.62
2759.00,74.76
2758.50,74.90
2758.00,75.04
2757.50,75.17
2757.00,75.30
2756.50,75.42
2756.00,75.54
2755.50,75.66
2755.00,75.78
2754.50,75.89
2754.00,76.00
2753.50,76.11
2753.00,76.21
2752.50,76.32
2752.00,76.41
2751.50,76.51
2751.00,76.60
2750.50,76.69
2750.00,76.78
2749.50,76.87
2749.00,76.96
2748.50,77.05
2748.00,77.13
2747.50,77.22
2747.00,77.30
2746.50,77.39
2746.00,77.48
2745.50,77.57
2745.00,77.66
2744.50,77.74
2744.00,77.82
2743.50,77.90
2743.00,77.97
2742.50,78.05
2742.00,78.13
2741.50,78.20
2741.00,78.27
2740.50,78.34
2740.00,78.41
2739.50,78.48
2739.00,78.54
2738.50,78.61
2738.00,78.67
2737.50,78.73
2737.00,78.78
2736.50,78.84
2736.00,78.90
2735.50,78.95
2735.00,79.01
2734.50,79.06
2734.00,79.11
2733.50,79.16
2733.00,79.21
2732.50,79.25
2732.00,79.30
2731.50,79.34
2731.00,79.38
2730.50,79.42
2730.00,79.46
2729.50,79.49
2729.00,79.53
2728.50,79.56
2728.00,79.60
2727.50,79.63
2727.00,79.66
2726.50,79.68
2726.00,79.70
2725.50,79.72
2725.00,79.75
2724.50,79.77
2724.00,79.80
2723.50,79.81
2723.00,79.83
2722.50,79.84
2722.00,79.84
2721.50,79.85
2721.00,79.86
2720.50,79.87
2720.00,79.88
2719.50,79.88
2719.00,79.88
2718.50,79.87
2718.00,79.87
2717.50,79.86
2717.00,79.85
2716.50,79.85
2716.00,79.84
2715.50,79.83
2715.00,79.82
2714.50,79.80
2714.00,79.79
2713.50,79.77
2713.00,79.76
2712.50,79.75
2712.00,79.74
2711.50,79.73
2711.00,79.72
2710.50,79.71
2710.00,79.70
2709.50,79.70
2709.00,79.69
2708.50,79.70
2708.00,79.70
2707.50,79.71
2707.00,79.72
2706.50,79.73
2706.00,79.75
2705.50,79.77
2705.00,79.79
2704.50,79.82
2704.00,79.84
2703.50,79.87
2703.00,79.90
2702.50,79.93
2702.00,79.96
2701.50,79.99
2701.00,80.03
2700.50,80.06
2700.00,80.09
2699.50,80.12
2699.00,80.14
2698.50,80.17
2698.00,80.19
2697.50,80.22
2697.00,80.24
2696.50,80.26
2696.00,80.28
2695.50,80.30
2695.00,80.31
2694.50,80.32
2694.00,80.33
2693.50,80.34
2693.00,80.34
2692.50,80.34
2692.00,80.34
2691.50,80.33
2691.00,80.33
2690.50,80.32
2690.00,80.30
2689.50,80.28
2689.00,80.25
2688.50,80.23
2688.00,80.20
2687.50,80.16
2687.00,80.12
2686.50,80.07
2686.00,80.02
2685.50,79.97
2685.00,79.91
2684.50,79.85
2684.00,79.78
2683.50,79.71
2683.00,79.64
2682.50,79.56
2682.00,79.47
2681.50,79.38
2681.00,79.29
2680.50,79.19
2680.00,79.08
2679.50,78.97
2679.00,78.87
2678.50,78.76
2678.00,78.64
2677.50,78.52
2677.00,78.40
2676.50,78.28
2676.00,78.15
2675.50,78.02
2675.00,77.88
2674.50,77.75
2674.00,77.61
2673.50,77.46
2673.00,77.32
2672.50,77.17
2672.00,77.03
2671.50,76.89
2671.00,76.74
2670.50,76.60
2670.00,76.46
2669.50,76.32
2669.00,76.19
2668.50,76.06
2668.00,75.93
2667.50,75.82
2667.00,75.71
2666.50,75.61
2666.00,75.51
2665.50,75.43
2665.00,75.35
2664.50,75.29
2664.00,75.24
2663.50,75.20
2663.00,75.18
2662.50,75.17
2662.00,75.17
2661.50,75.18
2661.00,75.20
2660.50,75.24
2660.00,75.29
2659.50,75.35
2659.00,75.43
2658.50,75.52
2658.00,75.62
2657.50,75.72
2657.00,75.84
2656.50,75.97
2656.00,76.10
2655.50,76.25
2655.00,76.40
2654.50,76.57
2654.00,76.74
2653.50,76.91
2653.00,77.10
2652.50,77.28
2652.00,77.48
2651.50,77.67
2651.00,77.87
2650.50,78.07
2650.00,78.28
2649.50,78.48
2649.00,78.68
2648.50,78.89
2648.00,79.09
2647.50,79.28
2647.00,79.47
2646.50,79.66
2646.00,79.85
2645.50,80.03
2645.00,80.21
2644.50,80.38
2644.00,80.55
2643.50,80.72
2643.00,80.88
2642.50,81.03
2642.00,81.18
2641.50,81.33
2641.00,81.47
2640.50,81.60
2640.00,81.73
2639.50,81.85
2639.00,81.97
2638.50,82.09
2638.00,82.21
2637.50,82.32
2637.00,82.42
2636.50,82.53
2636.00,82.63
2635.50,82.72
2635.00,82.81
2634.50,82.89
2634.00,82.98
2633.50,83.06
2633.00,83.14
2632.50,83.21
2632.00,83.29
2631.50,83.36
2631.00,83.43
2630.50,83.50
2630.00,83.56
2629.50,83.62
2629.00,83.68
2628.50,83.74
2628.00,83.79
2627.50,83.85
2627.00,83.90
2626.50,83.96
2626.00,84.01
2625.50,84.06
2625.00,84.10
2624.50,84.15
2624.00,84.20
2623.50,84.25
2623.00,84.30
2622.50,84.34
2622.00,84.39
2621.50,84.43
2621.00,84.47
2620.50,84.51
2620.00,84.54
2619.50,84.58
2619.00,84.61
2618.50,84.65
2618.00,84.68
2617.50,84.71
2617.00,84.74
2616.50,84.78
2616.00,84.81
2615.50,84.84
2615.00,84.87
2614.50,84.90
2614.00,84.93
2613.50,84.96
2613.00,84.99
2612.50,85.01
2612.00,85.04
2611.50,85.06
2611.00,85.08
2610.50,85.11
2610.00,85.13
2609.50,85.15
2609.00,85.17
2608.50,85.19
2608.00,85.22
2607.50,85.23
2607.00,85.25
2606.50,85.27
2606.00,85.29
2605.50,85.31
2605.00,85.33
2604.50,85.34
2604.00,85.36
2603.50,85.37
2603.00,85.39
2602.50,85.41
2602.00,85.42
2601.50,85.43
2601.00,85.45
2600.50,85.46
2600.00,85.47
2599.50,85.48
2599.00,85.49
2598.50,85.50
2598.00,85.51
2597.50,85.52
2597.00,85.53
2596.50,85.55
2596.00,85.56
2595.50,85.57
2595.00,85.57
2594.50,85.58
2594.00,85.59
2593.50,85.60
2593.00,85.61
2592.50,85.62
2592.00,85.63
2591.50,85.64
2591.00,85.66
2590.50,85.67
2590.00,85.68
2589.50,85.70
2589.00,85.71
2588.50,85.72
2588.00,85.74
2587.50,85.74
2587.00,85.75
2586.50,85.77
2586.00,85.78
2585.50,85.78
2585.00,85.79
2584.50,85.80
2584.00,85.82
2583.50,85.82
2583.00,85.84
2582.50,85.85
2582.00,85.85
2581.50,85.86
2581.00,85.87
2580.50,85.87
2580.00,85.88
2579.50,85.89
2579.00,85.89
2578.50,85.90
2578.00,85.91
2577.50,85.91
2577.00,85.91
2576.50,85.92
2576.00,85.92
2575.50,85.92
2575.00,85.93
2574.50,85.94
2574.00,85.94
2573.50,85.95
2573.00,85.95
2572.50,85.96
2572.00,85.96
2571.50,85.97
2571.00,85.97
2570.50,85.97
2570.00,85.98
2569.50,85.98
2569.00,85.98
2568.50,85.99
2568.00,85.99
2567.50,85.99
2567.00,86.00
2566.50,86.00
2566.00,86.00
2565.50,86.00
2565.00,86.00
2564.50,86.00
2564.00,86.00
2563.50,86.00
2563.00,86.00
2562.50,86.01
2562.00,86.01
2561.50,86.01
2561.00,86.01
2560.50,86.01
2560.00,86.01
2559.50,86.01
2559.00,86.01
2558.50,86.01
2558.00,86.01
2557.50,86.00
2557.00,86.00
2556.50,86.00
2556.00,86.00
2555.50,86.00
2555.00,86.00
2554.50,86.00
2554.00,85.99
2553.50,85.99
2553.00,85.99
2552.50,85.99
2552.00,85.98
2551.50,85.98
2551.00,85.97
2550.50,85.97
2550.00,85.97
2549.50,85.96
2549.00,85.96
2548.50,85.96
2548.00,85.95
2547.50,85.95
2547.00,85.94
2546.50,85.94
2546.00,85.93
2545.50,85.92
2545.00,85.91
2544.50,85.90
2544.00,85.89
2543.50,85.89
2543.00,85.88
2542.50,85.88
2542.00,85.87
2541.50,85.86
2541.00,85.85
2540.50,85.84
2540.00,85.83
2539.50,85.81
2539.00,85.80
2538.50,85.80
2538.00,85.78
2537.50,85.77
2537.00,85.76
2536.50,85.74
2536.00,85.73
2535.50,85.71
2535.00,85.69
2534.50,85.67
2534.00,85.65
2533.50,85.62
2533.00,85.60
2532.50,85.57
2532.00,85.55
2531.50,85.52
2531.00,85.49
2530.50,85.46
2530.00,85.43
2529.50,85.40
2529.00,85.36
2528.50,85.33
2528.00,85.29
2527.50,85.26
2527.00,85.22
2526.50,85.18
2526.00,85.14
2525.50,85.09
2525.00,85.05
2524.50,85.00
2524.00,84.95
2523.50,84.90
2523.00,84.85
2522.50,84.80
2522.00,84.75
2521.50,84.69
2521.00,84.63
2520.50,84.57
2520.00,84.51
2519.50,84.45
2519.00,84.39
2518.50,84.32
2518.00,84.25
2517.50,84.17
2517.00,84.09
2516.50,84.00
2516.00,83.91
2515.50,83.81
2515.00,83.71
2514.50,83.60
2514.00,83.48
2513.50,83.35
2513.00,83.20
2512.50,83.05
2512.00,82.89
2511.50,82.71
2511.00,82.52
2510.50,82.31
2510.00,82.08
2509.50,81.83
2509.00,81.56
2508.50,81.27
2508.00,80.95
2507.50,80.61
2507.00,80.24
2506.50,79.85
2506.00,79.43
2505.50,78.98
2505.00,78.53
2504.50,78.06
2504.00,77.59
2503.50,77.13
2503.00,76.68
2502.50,76.26
2502.00,75.87
2501.50,75.54
2501.00,75.27
2500.50,75.06
2500.00,74.93
2499.50,74.87
2499.00,74.89
2498.50,74.98
2498.00,75.12
2497.50,75.32
2497.00,75.57
2496.50,75.84
2496.00,76.15
2495.50,76.47
2495.00,76.81
2494.50,77.15
2494.00,77.49
2493.50,77.83
2493.00,78.17
2492.50,78.51
2492.00,78.84
2491.50,79.16
2491.00,79.48
2490.50,79.79
2490.00,80.10
2489.50,80.39
2489.00,80.68
2488.50,80.96
2488.00,81.23
2487.50,81.49
2487.00,81.74
2486.50,81.98
2486.00,82.20
2485.50,82.41
2485.00,82.61
2484.50,82.80
2484.00,82.98
2483.50,83.14
2483.00,83.30
2482.50,83.45
2482.00,83.59
2481.50,83.72
2481.00,83.84
2480.50,83.95
2480.00,84.05
2479.50,84.15
2479.00,84.24
2478.50,84.33
2478.00,84.42
2477.50,84.50
2477.00,84.57
2476.50,84.65
2476.00,84.72
2475.50,84.78
2475.00,84.84
2474.50,84.89
2474.00,84.95
2473.50,85.00
2473.00,85.04
2472.50,85.09
2472.00,85.14
2471.50,85.18
2471.00,85.22
2470.50,85.26
2470.00,85.30
2469.50,85.33
2469.00,85.36
2468.50,85.40
2468.00,85.43
2467.50,85.45
2467.00,85.48
2466.50,85.50
2466.00,85.53
2465.50,85.55
2465.00,85.58
2464.50,85.61
2464.00,85.63
2463.50,85.65
2463.00,85.67
2462.50,85.69
2462.00,85.71
2461.50,85.73
2461.00,85.75
2460.50,85.77
2460.00,85.79
2459.50,85.80
2459.00,85.82
2458.50,85.84
2458.00,85.85
2457.50,85.87
2457.00,85.88
2456.50,85.90
2456.00,85.92
2455.50,85.93
2455.00,85.94
2454.50,85.95
2454.00,85.97
2453.50,85.98
2453.00,85.99
2452.50,86.00
2452.00,86.01
2451.50,86.02
2451.00,86.03
2450.50,86.04
2450.00,86.05
2449.50,86.06
2449.00,86.07
2448.50,86.08
2448.00,86.09
2447.50,86.09
2447.00,86.10
2446.50,86.11
2446.00,86.11
2445.50,86.12
2445.00,86.13
2444.50,86.14
2444.00,86.14
2443.50,86.15
2443.00,86.15
2442.50,86.15
2442.00,86.16
2441.50,86.16
2441.00,86.17
2440.50,86.17
2440.00,86.17
2439.50,86.18
2439.00,86.18
2438.50,86.18
2438.00,86.19
2437.50,86.19
2437.00,86.19
2436.50,86.19
2436.00,86.20
2435.50,86.20
2435.00,86.20
2434.50,86.21
2434.00,86.21
2433.50,86.21
2433.00,86.21
2432.50,86.21
2432.00,86.22
2431.50,86.21
2431.00,86.21
2430.50,86.22
2430.00,86.22
2429.50,86.22
2429.00,86.22
2428.50,86.23
2428.00,86.23
2427.50,86.23
2427.00,86.23
2426.50,86.23
2426.00,86.23
2425.50,86.23
2425.00,86.23
2424.50,86.23
2424.00,86.23
2423.50,86.23
2423.00,86.23
2422.50,86.23
2422.00,86.23
2421.50,86.23
2421.00,86.23
2420.50,86.23
2420.00,86.23
2419.50,86.22
2419.00,86.22
2418.50,86.22
2418.00,86.22
2417.50,86.21
2417.00,86.21
2416.50,86.21
2416.00,86.21
2415.50,86.20
2415.00,86.20
2414.50,86.20
2414.00,86.20
2413.50,86.19
2413.00,86.18
2412.50,86.18
2412.00,86.18
2411.50,86.17
2411.00,86.16
2410.50,86.16
2410.00,86.16
2409.50,86.16
2409.00,86.15
2408.50,86.15
2408.00,86.15
2407.50,86.14
2407.00,86.14
2406.50,86.14
2406.00,86.14
2405.50,86.14
2405.00,86.13
2404.50,86.13
2404.00,86.13
2403.50,86.12
2403.00,86.12
2402.50,86.12
2402.00,86.12
2401.50,86.12
2401.00,86.11
2400.50,86.11
2400.00,86.11
2399.50,86.11
2399.00,86.11
2398.50,86.11
2398.00,86.11
2397.50,86.10
2397.00,86.10
2396.50,86.10
2396.00,86.10
2395.50,86.09
2395.00,86.09
2394.50,86.08
2394.00,86.08
2393.50,86.07
2393.00,86.07
2392.50,86.07
2392.00,86.07
2391.50,86.06
2391.00,86.05
2390.50,86.05
2390.00,86.04
2389.50,86.04
2389.00,86.03
2388.50,86.03
2388.00,86.02
2387.50,86.01
2387.00,86.00
2386.50,85.99
2386.00,85.99
2385.50,85.98
2385.00,85.98
2384.50,85.97
2384.00,85.97
2383.50,85.96
2383.00,85.95
2382.50,85.94
2382.00,85.93
2381.50,85.92
2381.00,85.91
2380.50,85.89
2380.00,85.88
2379.50,85.86
2379.00,85.84
2378.50,85.83
2378.00,85.82
2377.50,85.81
2377.00,85.80
2376.50,85.79
2376.00,85.78
2375.50,85.77
2375.00,85.76
2374.50,85.76
2374.00,85.76
2373.50,85.76
2373.00,85.75
2372.50,85.76
2372.00,85.76
2371.50,85.75
2371.00,85.74
2370.50,85.74
2370.00,85.74
2369.50,85.73
2369.00,85.72
2368.50,85.72
2368.00,85.72
2367.50,85.70
2367.00,85.68
2366.50,85.68
2366.00,85.67
2365.50,85.66
2365.00,85.65
2364.50,85.65
2364.00,85.65
2363.50,85.63
2363.00,85.61
2362.50,85.61
2362.00,85.61
2361.50,85.60
2361.00,85.59
2360.50,85.58
2360.00,85.58
2359.50,85.55
2359.00,85.54
2358.50,85.55
2358.00,85.55
2357.50,85.54
2357.00,85.52
2356.50,85.51
2356.00,85.49
2355.50,85.46
2355.00,85.43
2354.50,85.43
2354.00,85.43
2353.50,85.41
2353.00,85.39
2352.50,85.36
2352.00,85.33
2351.50,85.31
2351.00,85.31
2350.50,85.32
2350.00,85.33
2349.50,85.33
2349.00,85.32
2348.50,85.31
2348.00,85.29
2347.50,85.26
2347.00,85.24
2346.50,85.24
2346.00,85.25
2345.50,85.24
2345.00,85.23
2344.50,85.24
2344.00,85.24
2343.50,85.23
2343.00,85.21
2342.50,85.19
2342.00,85.17
2341.50,85.14
2341.00,85.09
2340.50,85.05
2340.00,85.02
2339.50,84.98
2339.00,84.95
2338.50,84.94
2338.00,84.95
2337.50,84.95
2337.00,84.94
2336.50,84.95
2336.00,84.96
2335.50,84.96
2335.00,84.95
2334.50,84.95
2334.00,84.97
2333.50,84.96
2333.00,84.93
2332.50,84.93
2332.00,84.93
2331.50,84.92
2331.00,84.89
2330.50,84.88
2330.00,84.89
2329.50,84.88
2329.00,84.85
2328.50,84.85
2328.00,84.86
2327.50,84.84
2327.00,84.80
2326.50,84.79
2326.00,84.79
2325.50,84.77
2325.00,84.74
2324.50,84.74
2324.00,84.73
2323.50,84.70
2323.00,84.67
2322.50,84.66
2322.00,84.65
2321.50,84.63
2321.00,84.60
2320.50,84.59
2320.00,84.57
2319.50,84.55
2319.00,84.52
2318.50,84.51
2318.00,84.50
2317.50,84.48
2317.00,84.46
2316.50,84.44
2316.00,84.42
2315.50,84.39
2315.00,84.36
2314.50,84.33
2314.00,84.31
2313.50,84.28
2313.00,84.26
2312.50,84.25
2312.00,84.23
2311.50,84.21
2311.00,84.18
2310.50,84.16
2310.00,84.15
2309.50,84.12
2309.00,84.09
2308.50,84.07
2308.00,84.05
2307.50,84.02
2307.00,83.99
2306.50,83.96
2306.00,83.94
2305.50,83.92
2305.00,83.89
2304.50,83.86
2304.00,83.84
2303.50,83.82
2303.00,83.79
2302.50,83.76
2302.00,83.73
2301.50,83.70
2301.00,83.67
2300.50,83.64
2300.00,83.61
2299.50,83.57
2299.00,83.54
2298.50,83.51
2298.00,83.48
2297.50,83.44
2297.00,83.41
2296.50,83.37
2296.00,83.33
2295.50,83.29
2295.00,83.25
2294.50,83.21
2294.00,83.17
2293.50,83.12
2293.00,83.08
2292.50,83.04
2292.00,82.99
2291.50,82.95
2291.00,82.90
2290.50,82.86
2290.00,82.82
2289.50,82.77
2289.00,82.73
2288.50,82.68
2288.00,82.63
2287.50,82.58
2287.00,82.53
2286.50,82.48
2286.00,82.43
2285.50,82.38
2285.00,82.33
2284.50,82.28
2284.00,82.23
2283.50,82.18
2283.00,82.13
2282.50,82.08
2282.00,82.03
2281.50,81.98
2281.00,81.93
2280.50,81.89
2280.00,81.84
2279.50,81.79
2279.00,81.74
2278.50,81.70
2278.00,81.66
2277.50,81.62
2277.00,81.57
2276.50,81.54
2276.00,81.50
2275.50,81.46
2275.00,81.43
2274.50,81.40
2274.00,81.37
2273.50,81.34
2273.00,81.31
2272.50,81.29
2272.00,81.27
2271.50,81.25
2271.00,81.23
2270.50,81.21
2270.00,81.20
2269.50,81.18
2269.00,81.16
2268.50,81.15
2268.00,81.13
2267.50,81.11
2267.00,81.09
2266.50,81.08
2266.00,81.06
2265.50,81.04
2265.00,81.02
2264.50,81.00
2264.00,80.98
2263.50,80.96
2263.00,80.93
2262.50,80.91
2262.00,80.89
2261.50,80.87
2261.00,80.84
2260.50,80.82
2260.00,80.79
2259.50,80.76
2259.00,80.73
2258.50,80.71
2258.00,80.68
2257.50,80.64
2257.00,80.61
2256.50,80.57
2256.00,80.54
2255.50,80.51
2255.00,80.47
2254.50,80.44
2254.00,80.40
2253.50,80.36
2253.00,80.32
2252.50,80.28
2252.00,80.24
2251.50,80.19
2251.00,80.14
2250.50,80.10
2250.00,80.06
2249.50,80.01
2249.00,79.96
2248.50,79.91
2248.00,79.86
2247.50,79.80
2247.00,79.74
2246.50,79.69
2246.00,79.64
2245.50,79.58
2245.00,79.52
2244.50,79.46
2244.00,79.40
2243.50,79.34
2243.00,79.27
2242.50,79.21
2242.00,79.15
2241.50,79.08
2241.00,79.01
2240.50,78.94
2240.00,78.86
2239.50,78.79
2239.00,78.71
2238.50,78.63
2238.00,78.55
2237.50,78.47
2237.00,78.38
2236.50,78.29
2236.00,78.20
2235.50,78.10
2235.00,78.01
2234.50,77.91
2234.00,77.81
2233.50,77.70
2233.00,77.59
2232.50,77.49
2232.00,77.38
2231.50,77.26
2231.00,77.14
2230.50,77.02
2230.00,76.90
2229.50,76.77
2229.00,76.64
2228.50,76.51
2228.00,76.37
2227.50,76.23
2227.00,76.09
2226.50,75.95
2226.00,75.81
2225.50,75.66
2225.00,75.51
2224.50,75.36
2224.00,75.20
2223.50,75.05
2223.00,74.88
2222.50,74.72
2222.00,74.56
2221.50,74.39
2221.00,74.22
2220.50,74.05
2220.00,73.88
2219.50,73.70
2219.00,73.52
2218.50,73.33
2218.00,73.15
2217.50,72.95
2217.00,72.75
2216.50,72.55
2216.00,72.35
2215.50,72.14
2215.00,71.92
2214.50,71.70
2214.00,71.48
2213.50,71.25
2213.00,71.01
2212.50,70.76
2212.00,70.52
2211.50,70.26
2211.00,69.99
2210.50,69.72
2210.00,69.44
2209.50,69.15
2209.00,68.85
2208.50,68.54
2208.00,68.23
2207.50,67.91
2207.00,67.58
2206.50,67.23
2206.00,66.89
2205.50,66.53
2205.00,66.15
2204.50,65.78
2204.00,65.39
2203.50,64.99
2203.00,64.58
2202.50,64.16
2202.00,63.73
2201.50,63.28
2201.00,62.82
2200.50,62.35
2200.00,61.87
2199.50,61.38
2199.00,60.87
2198.50,60.35
2198.00,59.83
2197.50,59.28
2197.00,58.72
2196.50,58.14
2196.00,57.56
2195.50,56.96
2195.00,56.34
2194.50,55.71
2194.00,55.07
2193.50,54.41
2193.00,53.74
2192.50,53.05
2192.00,52.36
2191.50,51.65
2191.00,50.92
2190.50,50.18
2190.00,49.43
2189.50,48.66
2189.00,47.88
2188.50,47.09
2188.00,46.30
2187.50,45.49
2187.00,44.66
2186.50,43.83
2186.00,43.00
2185.50,42.15
2185.00,41.30
2184.50,40.44
2184.00,39.59
2183.50,38.72
2183.00,37.84
2182.50,36.98
2182.00,36.12
2181.50,35.26
2181.00,34.40
2180.50,33.54
2180.00,32.71
2179.50,31.88
2179.00,31.05
2178.50,30.24
2178.00,29.46
2177.50,28.69
2177.00,27.92
2176.50,27.18
2176.00,26.47
2175.50,25.78
2175.00,25.10
2174.50,24.45
2174.00,23.83
2173.50,23.24
2173.00,22.65
2172.50,22.10
2172.00,21.59
2171.50,21.09
2171.00,20.61
2170.50,20.17
2170.00,19.76
2169.50,19.37
2169.00,18.99
2168.50,18.65
2168.00,18.35
2167.50,18.07
2167.00,17.80
2166.50,17.56
2166.00,17.36
2165.50,17.18
2165.00,17.01
2164.50,16.88
2164.00,16.79
2163.50,16.72
2163.00,16.66
2162.50,16.64
2162.00,16.65
2161.50,16.68
2161.00,16.73
2160.50,16.80
2160.00,16.92
2159.50,17.06
2159.00,17.21
2158.50,17.39
2158.00,17.62
2157.50,17.86
2157.00,18.11
2156.50,18.40
2156.00,18.73
2155.50,19.08
2155.00,19.44
2154.50,19.84
2154.00,20.28
2153.50,20.73
2153.00,21.21
2152.50,21.71
2152.00,22.25
2151.50,22.82
2151.00,23.39
2150.50,24.00
2150.00,24.64
2149.50,25.31
2149.00,25.98
2148.50,26.68
2148.00,27.42
2147.50,28.17
2147.00,28.93
2146.50,29.71
2146.00,30.52
2145.50,31.34
2145.00,32.16
2144.50,33.00
2144.00,33.86
2143.50,34.72
2143.00,35.58
2142.50,36.45
2142.00,37.33
2141.50,38.21
2141.00,39.09
2140.50,39.96
2140.00,40.85
2139.50,41.73
2139.00,42.60
2138.50,43.46
2138.00,44.32
2137.50,45.17
2137.00,46.00
2136.50,46.84
2136.00,47.66
2135.50,48.47
2135.00,49.26
2134.50,50.03
2134.00,50.79
2133.50,51.54
2133.00,52.26
2132.50,52.96
2132.00,53.66
2131.50,54.33
2131.00,54.98
2130.50,55.61
2130.00,56.22
2129.50,56.82
2129.00,57.38
2128.50,57.94
2128.00,58.47
2127.50,58.99
2127.00,59.48
2126.50,59.96
2126.00,60.42
2125.50,60.86
2125.00,61.29
2124.50,61.70
2124.00,62.10
2123.50,62.49
2123.00,62.85
2122.50,63.21
2122.00,63.56
2121.50,63.89
2121.00,64.21
2120.50,64.51
2120.00,64.81
2119.50,65.10
2119.00,65.37
2118.50,65.63
2118.00,65.89
2117.50,66.13
2117.00,66.36
2116.50,66.58
2116.00,66.80
2115.50,67.01
2115.00,67.21
2114.50,67.40
2114.00,67.58
2113.50,67.76
2113.00,67.92
2112.50,68.08
2112.00,68.23
2111.50,68.38
2111.00,68.53
2110.50,68.67
2110.00,68.81
2109.50,68.93
2109.00,69.06
2108.50,69.18
2108.00,69.31
2107.50,69.42
2107.00,69.54
2106.50,69.65
2106.00,69.76
2105.50,69.87
2105.00,69.97
2104.50,70.08
2104.00,70.18
2103.50,70.28
2103.00,70.37
2102.50,70.47
2102.00,70.56
2101.50,70.65
2101.00,70.73
2100.50,70.82
2100.00,70.90
2099.50,70.98
2099.00,71.05
2098.50,71.13
2098.00,71.21
2097.50,71.27
2097.00,71.34
2096.50,71.40
2096.00,71.46
2095.50,71.52
2095.00,71.57
2094.50,71.62
2094.00,71.66
2093.50,71.70
2093.00,71.74
2092.50,71.77
2092.00,71.80
2091.50,71.82
2091.00,71.84
2090.50,71.86
2090.00,71.88
2089.50,71.88
2089.00,71.89
2088.50,71.89
2088.00,71.89
2087.50,71.89
2087.00,71.88
2086.50,71.88
2086.00,71.87
2085.50,71.86
2085.00,71.85
2084.50,71.84
2084.00,71.83
2083.50,71.81
2083.00,71.79
2082.50,71.78
2082.00,71.76
2081.50,71.74
2081.00,71.72
2080.50,71.70
2080.00,71.68
2079.50,71.66
2079.00,71.64
2078.50,71.61
2078.00,71.58
2077.50,71.55
2077.00,71.51
2076.50,71.48
2076.00,71.44
2075.50,71.40
2075.00,71.35
2074.50,71.30
2074.00,71.25
2073.50,71.20
2073.00,71.14
2072.50,71.08
2072.00,71.02
2071.50,70.95
2071.00,70.88
2070.50,70.81
2070.00,70.74
2069.50,70.66
2069.00,70.57
2068.50,70.48
2068.00,70.39
2067.50,70.30
2067.00,70.21
2066.50,70.12
2066.00,70.04
2065.50,69.95
2065.00,69.86
2064.50,69.77
2064.00,69.68
2063.50,69.58
2063.00,69.48
2062.50,69.38
2062.00,69.28
2061.50,69.17
2061.00,69.06
2060.50,68.96
2060.00,68.86
2059.50,68.75
2059.00,68.64
2058.50,68.54
2058.00,68.44
2057.50,68.34
2057.00,68.24
2056.50,68.15
2056.00,68.07
2055.50,67.98
2055.00,67.91
2054.50,67.84
2054.00,67.78
2053.50,67.73
2053.00,67.69
2052.50,67.66
2052.00,67.66
2051.50,67.67
2051.00,67.69
2050.50,67.74
2050.00,67.81
2049.50,67.90
2049.00,68.01
2048.50,68.14
2048.00,68.30
2047.50,68.48
2047.00,68.68
2046.50,68.90
2046.00,69.15
2045.50,69.41
2045.00,69.68
2044.50,69.97
2044.00,70.27
2043.50,70.57
2043.00,70.87
2042.50,71.18
2042.00,71.50
2041.50,71.82
2041.00,72.14
2040.50,72.44
2040.00,72.72
2039.50,72.99
2039.00,73.24
2038.50,73.49
2038.00,73.73
2037.50,73.95
2037.00,74.16
2036.50,74.34
2036.00,74.52
2035.50,74.67
2035.00,74.80
2034.50,74.93
2034.00,75.04
2033.50,75.13
2033.00,75.21
2032.50,75.28
2032.00,75.33
2031.50,75.37
2031.00,75.40
2030.50,75.42
2030.00,75.43
2029.50,75.42
2029.00,75.40
2028.50,75.38
2028.00,75.34
2027.50,75.29
2027.00,75.24
2026.50,75.18
2026.00,75.12
2025.50,75.04
2025.00,74.96
2024.50,74.87
2024.00,74.78
2023.50,74.68
2023.00,74.57
2022.50,74.47
2022.00,74.36
2021.50,74.24
2021.00,74.12
2020.50,73.99
2020.00,73.86
2019.50,73.73
2019.00,73.59
2018.50,73.44
2018.00,73.29
2017.50,73.14
2017.00,72.98
2016.50,72.82
2016.00,72.66
2015.50,72.50
2015.00,72.34
2014.50,72.17
2014.00,71.99
2013.50,71.81
2013.00,71.63
2012.50,71.45
2012.00,71.27
2011.50,71.09
2011.00,70.92
2010.50,70.76
2010.00,70.61
2009.50,70.46
2009.00,70.32
2008.50,70.19
2008.00,70.07
2007.50,69.95
2007.00,69.84
2006.50,69.74
2006.00,69.65
2005.50,69.55
2005.00,69.46
2004.50,69.36
2004.00,69.27
2003.50,69.17
2003.00,69.08
2002.50,68.98
2002.00,68.88
2001.50,68.79
2001.00,68.70
2000.50,68.61
2000.00,68.54
1999.50,68.47
1999.00,68.41
1998.50,68.36
1998.00,68.32
1997.50,68.27
1997.00,68.21
1996.50,68.18
1996.00,68.17
1995.50,68.21
1995.00,68.27
1994.50,68.33
1994.00,68.37
1993.50,68.39
1993.00,68.41
1992.50,68.42
1992.00,68.43
1991.50,68.43
1991.00,68.41
1990.50,68.38
1990.00,68.33
1989.50,68.27
1989.00,68.19
1988.50,68.11
1988.00,68.02
1987.50,67.92
1987.00,67.81
1986.50,67.69
1986.00,67.57
1985.50,67.43
1985.00,67.28
1984.50,67.12
1984.00,66.96
1983.50,66.78
1983.00,66.59
1982.50,66.40
1982.00,66.19
1981.50,65.98
1981.00,65.76
1980.50,65.53
1980.00,65.29
1979.50,65.04
1979.00,64.78
1978.50,64.52
1978.00,64.25
1977.50,63.96
1977.00,63.67
1976.50,63.37
1976.00,63.06
1975.50,62.74
1975.00,62.41
1974.50,62.08
1974.00,61.75
1973.50,61.40
1973.00,61.05
1972.50,60.69
1972.00,60.34
1971.50,59.98
1971.00,59.61
1970.50,59.25
1970.00,58.89
1969.50,58.54
1969.00,58.19
1968.50,57.85
1968.00,57.50
1967.50,57.15
1967.00,56.80
1966.50,56.48
1966.00,56.18
1965.50,55.90
1965.00,55.61
1964.50,55.33
1964.00,55.07
1963.50,54.81
1963.00,54.55
1962.50,54.30
1962.00,54.05
1961.50,53.81
1961.00,53.57
1960.50,53.33
1960.00,53.10
1959.50,52.87
1959.00,52.63
1958.50,52.40
1958.00,52.16
1957.50,51.92
1957.00,51.67
1956.50,51.42
1956.00,51.16
1955.50,50.90
1955.00,50.62
1954.50,50.34
1954.00,50.06
1953.50,49.78
1953.00,49.48
1952.50,49.19
1952.00,48.90
1951.50,48.60
1951.00,48.30
1950.50,48.00
1950.00,47.71
1949.50,47.43
1949.00,47.15
1948.50,46.88
1948.00,46.64
1947.50,46.41
1947.00,46.20
1946.50,46.01
1946.00,45.86
1945.50,45.74
1945.00,45.64
1944.50,45.58
1944.00,45.55
1943.50,45.57
1943.00,45.66
1942.50,45.82
1942.00,46.03
1941.50,46.26
1941.00,46.50
1940.50,46.78
1940.00,47.12
1939.50,47.50
1939.00,47.90
1938.50,48.33
1938.00,48.78
1937.50,49.25
1937.00,49.73
1936.50,50.21
1936.00,50.69
1935.50,51.16
1935.00,51.61
1934.50,52.05
1934.00,52.48
1933.50,52.90
1933.00,53.30
1932.50,53.68
1932.00,54.03
1931.50,54.36
1931.00,54.66
1930.50,54.95
1930.00,55.22
1929.50,55.47
1929.00,55.69
1928.50,55.91
1928.00,56.12
1927.50,56.31
1927.00,56.48
1926.50,56.65
1926.00,56.81
1925.50,56.95
1925.00,57.08
1924.50,57.19
1924.00,57.30
1923.50,57.43
1923.00,57.58
1922.50,57.72
1922.00,57.85
1921.50,57.95
1921.00,58.05
1920.50,58.15
1920.00,58.25
1919.50,58.35
1919.00,58.46
1918.50,58.63
1918.00,58.84
1917.50,59.02
1917.00,59.17
1916.50,59.32
1916.00,59.50
1915.50,59.69
1915.00,59.91
1914.50,60.13
1914.00,60.36
1913.50,60.60
1913.00,60.84
1912.50,61.08
1912.00,61.31
1911.50,61.52
1911.00,61.73
1910.50,61.95
1910.00,62.18
1909.50,62.39
1909.00,62.58
1908.50,62.77
1908.00,62.96
1907.50,63.14
1907.00,63.30
1906.50,63.46
1906.00,63.61
1905.50,63.75
1905.00,63.89
1904.50,64.03
1904.00,64.16
1903.50,64.27
1903.00,64.37
1902.50,64.47
1902.00,64.57
1901.50,64.65
1901.00,64.73
1900.50,64.79
1900.00,64.86
1899.50,64.91
1899.00,64.95
1898.50,64.99
1898.00,65.02
1897.50,65.04
1897.00,65.06
1896.50,65.07
1896.00,65.09
1895.50,65.10
1895.00,65.11
1894.50,65.13
1894.00,65.13
1893.50,65.12
1893.00,65.11
1892.50,65.10
1892.00,65.09
1891.50,65.07
1891.00,65.04
1890.50,65.02
1890.00,65.02
1889.50,65.02
1889.00,65.02
1888.50,65.01
1888.00,65.00
1887.50,64.97
1887.00,64.95
1886.50,64.94
1886.00,64.92
1885.50,64.90
1885.00,64.88
1884.50,64.87
1884.00,64.85
1883.50,64.83
1883.00,64.81
1882.50,64.79
1882.00,64.78
1881.50,64.75
1881.00,64.72
1880.50,64.70
1880.00,64.68
1879.50,64.66
1879.00,64.64
1878.50,64.63
1878.00,64.61
1877.50,64.59
1877.00,64.56
1876.50,64.54
1876.00,64.52
1875.50,64.49
1875.00,64.47
1874.50,64.45
1874.00,64.44
1873.50,64.42
1873.00,64.39
1872.50,64.38
1872.00,64.36
1871.50,64.34
1871.00,64.31
1870.50,64.30
1870.00,64.31
1869.50,64.32
1869.00,64.33
1868.50,64.34
1868.00,64.34
1867.50,64.33
1867.00,64.32
1866.50,64.32
1866.00,64.32
1865.50,64.32
1865.00,64.31
1864.50,64.31
1864.00,64.32
1863.50,64.32
1863.00,64.31
1862.50,64.30
1862.00,64.30
1861.50,64.29
1861.00,64.28
1860.50,64.28
1860.00,64.27
1859.50,64.24
1859.00,64.21
1858.50,64.19
1858.00,64.17
1857.50,64.15
1857.00,64.12
1856.50,64.09
1856.00,64.06
1855.50,64.02
1855.00,63.99
1854.50,63.97
1854.00,63.96
1853.50,63.94
1853.00,63.91
1852.50,63.90
1852.00,63.90
1851.50,63.90
1851.00,63.90
1850.50,63.92
1850.00,63.93
1849.50,63.93
1849.00,63.94
1848.50,63.96
1848.00,64.00
1847.50,64.04
1847.00,64.07
1846.50,64.10
1846.00,64.12
1845.50,64.15
1845.00,64.22
1844.50,64.32
1844.00,64.39
1843.50,64.38
1843.00,64.35
1842.50,64.34
1842.00,64.34
1841.50,64.35
1841.00,64.35
1840.50,64.36
1840.00,64.36
1839.50,64.35
1839.00,64.33
1838.50,64.32
1838.00,64.31
1837.50,64.30
1837.00,64.29
1836.50,64.27
1836.00,64.26
1835.50,64.23
1835.00,64.19
1834.50,64.16
1834.00,64.13
1833.50,64.09
1833.00,64.04
1832.50,63.99
1832.00,63.95
1831.50,63.90
1831.00,63.85
1830.50,63.81
1830.00,63.80
1829.50,63.74
1829.00,63.66
1828.50,63.60
1828.00,63.54
1827.50,63.47
1827.00,63.38
1826.50,63.30
1826.00,63.21
1825.50,63.13
1825.00,63.05
1824.50,62.99
1824.00,62.93
1823.50,62.85
1823.00,62.75
1822.50,62.66
1822.00,62.58
1821.50,62.48
1821.00,62.38
1820.50,62.29
1820.00,62.19
1819.50,62.09
1819.00,61.98
1818.50,61.87
1818.00,61.76
1817.50,61.65
1817.00,61.53
1816.50,61.43
1816.00,61.33
1815.50,61.22
1815.00,61.10
1814.50,60.99
1814.00,60.87
1813.50,60.75
1813.00,60.62
1812.50,60.50
1812.00,60.37
1811.50,60.24
1811.00,60.10
1810.50,59.97
1810.00,59.85
1809.50,59.72
1809.00,59.59
1808.50,59.46
1808.00,59.32
1807.50,59.17
1807.00,59.03
1806.50,58.91
1806.00,58.78
1805.50,58.64
1805.00,58.49
1804.50,58.35
1804.00,58.20
1803.50,58.04
1803.00,57.88
1802.50,57.73
1802.00,57.60
1801.50,57.47
1801.00,57.34
1800.50,57.22
1800.00,57.08
1799.50,56.93
1799.00,56.78
1798.50,56.66
1798.00,56.54
1797.50,56.41
1797.00,56.27
1796.50,56.14
1796.00,56.01
1795.50,55.87
1795.00,55.74
1794.50,55.64
1794.00,55.54
1793.50,55.44
1793.00,55.33
1792.50,55.19
1792.00,55.05
1791.50,54.90
1791.00,54.77
1790.50,54.66
1790.00,54.56
1789.50,54.47
1789.00,54.37
1788.50,54.28
1788.00,54.19
1787.50,54.09
1787.00,54.00
1786.50,53.92
1786.00,53.84
1785.50,53.76
1785.00,53.68
1784.50,53.61
1784.00,53.54
1783.50,53.48
1783.00,53.41
1782.50,53.35
1782.00,53.29
1781.50,53.22
1781.00,53.18
1780.50,53.15
1780.00,53.12
1779.50,53.09
1779.00,53.06
1778.50,53.03
1778.00,53.01
1777.50,52.98
1777.00,52.95
1776.50,52.92
1776.00,52.91
1775.50,52.91
1775.00,52.91
1774.50,52.91
1774.00,52.90
1773.50,52.91
1773.00,52.97
1772.50,53.05
1772.00,53.07
1771.50,53.05
1771.00,53.02
1770.50,53.01
1770.00,52.99
1769.50,52.96
1769.00,52.95
1768.50,52.98
1768.00,53.03
1767.50,53.07
1767.00,53.10
1766.50,53.12
1766.00,53.14
1765.50,53.16
1765.00,53.18
1764.50,53.20
1764.00,53.22
1763.50,53.23
1763.00,53.25
1762.50,53.30
1762.00,53.37
1761.50,53.41
1761.00,53.43
1760.50,53.43
1760.00,53.44
1759.50,53.44
1759.00,53.45
1758.50,53.47
1758.00,53.49
1757.50,53.52
1757.00,53.56
1756.50,53.61
1756.00,53.63
1755.50,53.64
1755.00,53.65
1754.50,53.66
1754.00,53.68
1753.50,53.68
1753.00,53.67
1752.50,53.66
1752.00,53.67
1751.50,53.70
1751.00,53.73
1750.50,53.74
1750.00,53.73
1749.50,53.73
1749.00,53.74
1748.50,53.76
1748.00,53.77
1747.50,53.75
1747.00,53.74
1746.50,53.73
1746.00,53.71
1745.50,53.67
1745.00,53.63
1744.50,53.60
1744.00,53.57
1743.50,53.54
1743.00,53.52
1742.50,53.51
1742.00,53.49
1741.50,53.46
1741.00,53.44
1740.50,53.43
1740.00,53.40
1739.50,53.33
1739.00,53.25
1738.50,53.18
1738.00,53.12
1737.50,53.05
1737.00,52.99
1736.50,52.94
1736.00,52.89
1735.50,52.85
1735.00,52.83
1734.50,52.83
1734.00,52.71
1733.50,52.52
1733.00,52.41
1732.50,52.35
1732.00,52.28
1731.50,52.20
1731.00,52.10
1730.50,52.02
1730.00,51.94
1729.50,51.86
1729.00,51.80
1728.50,51.75
1728.00,51.69
1727.50,51.62
1727.00,51.56
1726.50,51.49
1726.00,51.43
1725.50,51.36
1725.00,51.30
1724.50,51.24
1724.00,51.19
1723.50,51.14
1723.00,51.09
1722.50,51.05
1722.00,51.01
1721.50,50.97
1721.00,50.92
1720.50,50.88
1720.00,50.84
1719.50,50.79
1719.00,50.74
1718.50,50.76
1718.00,50.79
1717.50,50.74
1717.00,50.69
1716.50,50.69
1716.00,50.68
1715.50,50.66
1715.00,50.62
1714.50,50.59
1714.00,50.55
1713.50,50.52
1713.00,50.50
1712.50,50.48
1712.00,50.46
1711.50,50.43
1711.00,50.41
1710.50,50.40
1710.00,50.39
1709.50,50.36
1709.00,50.34
1708.50,50.33
1708.00,50.31
1707.50,50.29
1707.00,50.27
1706.50,50.26
1706.00,50.23
1705.50,50.18
1705.00,50.14
1704.50,50.11
1704.00,50.08
1703.50,50.04
1703.00,50.00
1702.50,49.97
1702.00,49.95
1701.50,49.93
1701.00,49.86
1700.50,49.85
1700.00,49.83
1699.50,49.76
1699.00,49.71
1698.50,49.66
1698.00,49.61
1697.50,49.54
1697.00,49.47
1696.50,49.42
1696.00,49.34
1695.50,49.24
1695.00,49.19
1694.50,49.15
1694.00,49.09
1693.50,49.02
1693.00,48.94
1692.50,48.87
1692.00,48.80
1691.50,48.72
1691.00,48.63
1690.50,48.55
1690.00,48.45
1689.50,48.35
1689.00,48.26
1688.50,48.17
1688.00,48.09
1687.50,48.01
1687.00,47.94
1686.50,47.86
1686.00,47.77
1685.50,47.65
1685.00,47.56
1684.50,47.54
1684.00,47.39
1683.50,47.25
1683.00,47.22
1682.50,47.19
1682.00,47.14
1681.50,47.07
1681.00,47.00
1680.50,46.94
1680.00,46.88
1679.50,46.83
1679.00,46.79
1678.50,46.75
1678.00,46.69
1677.50,46.63
1677.00,46.57
1676.50,46.53
1676.00,46.48
1675.50,46.37
1675.00,46.23
1674.50,46.12
1674.00,46.03
1673.50,45.93
1673.00,45.84
1672.50,45.75
1672.00,45.64
1671.50,45.52
1671.00,45.42
1670.50,45.36
1670.00,45.28
1669.50,45.13
1669.00,44.92
1668.50,44.74
1668.00,44.62
1667.50,44.52
1667.00,44.42
1666.50,44.32
1666.00,44.20
1665.50,44.08
1665.00,43.96
1664.50,43.86
1664.00,43.77
1663.50,43.66
1663.00,43.51
1662.50,43.34
1662.00,43.19
1661.50,43.06
1661.00,42.95
1660.50,42.84
1660.00,42.73
1659.50,42.62
1659.00,42.50
1658.50,42.38
1658.00,42.27
1657.50,42.15
1657.00,42.03
1656.50,41.93
1656.00,41.86
1655.50,41.76
1655.00,41.68
1654.50,41.59
1654.00,41.57
1653.50,41.39
1653.00,40.95
1652.50,40.81
1652.00,40.82
1651.50,40.78
1651.00,40.73
1650.50,40.67
1650.00,40.60
1649.50,40.51
1649.00,40.42
1648.50,40.34
1648.00,40.26
1647.50,40.18
1647.00,40.09
1646.50,40.00
1646.00,39.87
1645.50,39.74
1645.00,39.65
1644.50,39.58
1644.00,39.52
1643.50,39.44
1643.00,39.35
1642.50,39.28
1642.00,39.21
1641.50,39.13
1641.00,39.05
1640.50,38.97
1640.00,38.90
1639.50,38.82
1639.00,38.74
1638.50,38.68
1638.00,38.61
1637.50,38.54
1637.00,38.47
1636.50,38.44
1636.00,38.37
1635.50,38.18
1635.00,38.00
1634.50,37.94
1634.00,37.89
1633.50,37.82
1633.00,37.73
1632.50,37.65
1632.00,37.57
1631.50,37.48
1631.00,37.38
1630.50,37.29
1630.00,37.21
1629.50,37.12
1629.00,37.04
1628.50,36.95
1628.00,36.84
1627.50,36.72
1627.00,36.61
1626.50,36.53
1626.00,36.46
1625.50,36.38
1625.00,36.30
1624.50,36.24
1624.00,36.16
1623.50,36.04
1623.00,35.89
1622.50,35.79
1622.00,35.71
1621.50,35.62
1621.00,35.53
1620.50,35.45
1620.00,35.37
1619.50,35.28
1619.00,35.20
1618.50,35.14
1618.00,35.08
1617.50,35.01
1617.00,34.91
1616.50,34.80
1616.00,34.72
1615.50,34.66
1615.00,34.61
1614.50,34.56
1614.00,34.52
1613.50,34.47
1613.00,34.42
1612.50,34.38
1612.00,34.35
1611.50,34.31
1611.00,34.27
1610.50,34.24
1610.00,34.22
1609.50,34.18
1609.00,34.14
1608.50,34.11
1608.00,34.08
1607.50,34.04
1607.00,33.99
1606.50,33.94
1606.00,33.89
1605.50,33.83
1605.00,33.76
1604.50,33.68
1604.00,33.58
1603.50,33.45
1603.00,33.27
1602.50,33.07
1602.00,32.84
1601.50,32.52
1601.00,32.13
1600.50,31.66
1600.00,31.12
1599.50,30.50
1599.00,29.83
1598.50,29.19
1598.00,28.66
1597.50,28.30
1597.00,28.19
1596.50,28.39
1596.00,28.86
1595.50,29.52
1595.00,30.31
1594.50,31.18
1594.00,31.99
1593.50,32.66
1593.00,33.20
1592.50,33.68
1592.00,34.11
1591.50,34.47
1591.00,34.78
1590.50,35.06
1590.00,35.33
1589.50,35.56
1589.00,35.77
1588.50,35.98
1588.00,36.18
1587.50,36.36
1587.00,36.54
1586.50,36.72
1586.00,36.90
1585.50,37.07
1585.00,37.23
1584.50,37.39
1584.00,37.56
1583.50,37.71
1583.00,37.87
1582.50,38.02
1582.00,38.18
1581.50,38.32
1581.00,38.46
1580.50,38.60
1580.00,38.75
1579.50,38.88
1579.00,39.00
1578.50,39.12
1578.00,39.22
1577.50,39.31
1577.00,39.44
1576.50,39.69
1576.00,39.95
1575.50,40.08
1575.00,40.15
1574.50,40.22
1574.00,40.30
1573.50,40.39
1573.00,40.49
1572.50,40.60
1572.00,40.70
1571.50,40.79
1571.00,40.87
1570.50,40.98
1570.00,41.17
1569.50,41.37
1569.00,41.48
1568.50,41.54
1568.00,41.59
1567.50,41.65
1567.00,41.71
1566.50,41.77
1566.00,41.84
1565.50,41.92
1565.00,42.01
1564.50,42.10
1564.00,42.17
1563.50,42.22
1563.00,42.25
1562.50,42.28
1562.00,42.31
1561.50,42.31
1561.00,42.31
1560.50,42.32
1560.00,42.51
1559.50,42.90
1559.00,43.10
1558.50,42.97
1558.00,42.84
1557.50,42.83
1557.00,42.84
1556.50,42.82
1556.00,42.81
1555.50,42.80
1555.00,42.82
1554.50,42.87
1554.00,42.92
1553.50,42.92
1553.00,42.92
1552.50,42.91
1552.00,42.90
1551.50,42.88
1551.00,42.84
1550.50,42.83
1550.00,42.85
1549.50,42.87
1549.00,42.89
1548.50,42.90
1548.00,42.90
1547.50,42.88
1547.00,42.85
1546.50,42.83
1546.00,42.82
1545.50,42.81
1545.00,42.80
1544.50,42.78
1544.00,42.76
1543.50,42.75
1543.00,42.77
1542.50,42.81
1542.00,42.83
1541.50,42.79
1541.00,42.73
1540.50,42.72
1540.00,42.77
1539.50,42.69
1539.00,42.53
1538.50,42.48
1538.00,42.48
1537.50,42.46
1537.00,42.44
1536.50,42.40
1536.00,42.37
1535.50,42.34
1535.00,42.31
1534.50,42.28
1534.00,42.27
1533.50,42.24
1533.00,42.19
1532.50,42.16
1532.00,42.13
1531.50,42.10
1531.00,42.09
1530.50,42.08
1530.00,42.07
1529.50,42.04
1529.00,42.02
1528.50,42.01
1528.00,42.00
1527.50,41.99
1527.00,41.99
1526.50,42.01
1526.00,42.03
1525.50,42.05
1525.00,42.06
1524.50,42.06
1524.00,42.06
1523.50,42.06
1523.00,42.07
1522.50,42.10
1522.00,42.14
1521.50,42.15
1521.00,42.12
1520.50,42.10
1520.00,42.10
1519.50,42.09
1519.00,42.06
1518.50,42.04
1518.00,42.01
1517.50,42.02
1517.00,42.05
1516.50,42.07
1516.00,42.08
1515.50,42.08
1515.00,42.09
1514.50,42.11
1514.00,42.12
1513.50,42.11
1513.00,42.10
1512.50,42.10
1512.00,42.11
1511.50,42.09
1511.00,42.05
1510.50,42.03
1510.00,42.01
1509.50,41.98
1509.00,41.96
1508.50,41.95
1508.00,41.96
1507.50,41.99
1507.00,42.08
1506.50,42.15
1506.00,42.12
1505.50,42.07
1505.00,42.05
1504.50,42.04
1504.00,42.03
1503.50,42.00
1503.00,41.97
1502.50,41.95
1502.00,41.94
1501.50,41.91
1501.00,41.88
1500.50,41.86
1500.00,41.83
1499.50,41.79
1499.00,41.73
1498.50,41.68
1498.00,41.61
1497.50,41.52
1497.00,41.42
1496.50,41.31
1496.00,41.17
1495.50,41.00
1495.00,40.86
1494.50,40.73
1494.00,40.57
1493.50,40.38
1493.00,40.18
1492.50,40.01
1492.00,39.83
1491.50,39.61
1491.00,39.35
1490.50,39.04
1490.00,38.68
1489.50,38.34
1489.00,38.12
1488.50,37.95
1488.00,37.75
1487.50,37.47
1487.00,37.16
1486.50,36.92
1486.00,36.71
1485.50,36.53
1485.00,36.35
1484.50,36.19
1484.00,36.04
1483.50,35.90
1483.00,35.76
1482.50,35.65
1482.00,35.56
1481.50,35.46
1481.00,35.37
1480.50,35.31
1480.00,35.27
1479.50,35.22
1479.00,35.18
1478.50,35.14
1478.00,35.09
1477.50,35.03
1477.00,34.95
1476.50,34.88
1476.00,34.82
1475.50,34.76
1475.00,34.69
1474.50,34.62
1474.00,34.52
1473.50,34.38
1473.00,34.20
1472.50,33.95
1472.00,33.62
1471.50,33.29
1471.00,33.02
1470.50,32.77
1470.00,32.47
1469.50,32.11
1469.00,31.70
1468.50,31.29
1468.00,30.85
1467.50,30.40
1467.00,29.98
1466.50,29.61
1466.00,29.22
1465.50,28.67
1465.00,27.93
1464.50,27.21
1464.00,26.63
1463.50,26.14
1463.00,25.62
1462.50,25.07
1462.00,24.47
1461.50,23.86
1461.00,23.30
1460.50,22.78
1460.00,22.28
1459.50,21.74
1459.00,21.17
1458.50,20.63
1458.00,20.11
1457.50,19.49
1457.00,18.77
1456.50,18.17
1456.00,17.72
1455.50,17.32
1455.00,16.91
1454.50,16.51
1454.00,16.10
1453.50,15.66
1453.00,15.19
1452.50,14.67
1452.00,14.10
1451.50,13.55
1451.00,13.08
1450.50,12.66
1450.00,12.26
1449.50,11.88
1449.00,11.51
1448.50,11.14
1448.00,10.76
1447.50,10.44
1447.00,10.24
1446.50,10.14
1446.00,10.08
1445.50,10.05
1445.00,10.07
1444.50,10.16
1444.00,10.29
1443.50,10.46
1443.00,10.67
1442.50,10.94
1442.00,11.24
1441.50,11.56
1441.00,11.91
1440.50,12.28
1440.00,12.66
1439.50,13.01
1439.00,13.34
1438.50,13.65
1438.00,13.93
1437.50,14.21
1437.00,14.63
1436.50,15.13
1436.00,15.40
1435.50,15.50
1435.00,15.57
1434.50,15.66
1434.00,15.71
1433.50,15.71
1433.00,15.67
1432.50,15.61
1432.00,15.50
1431.50,15.33
1431.00,15.12
1430.50,14.86
1430.00,14.49
1429.50,14.05
1429.00,13.64
1428.50,13.25
1428.00,12.80
1427.50,12.28
1427.00,11.72
1426.50,11.16
1426.00,10.59
1425.50,10.00
1425.00,9.40
1424.50,8.71
1424.00,7.87
1423.50,7.04
1423.00,6.40
1422.50,5.87
1422.00,5.36
1421.50,4.86
1421.00,4.43
1420.50,4.06
1420.00,3.60
1419.50,2.96
1419.00,2.41
1418.50,2.12
1418.00,1.94
1417.50,1.75
1417.00,1.59
1416.50,1.44
1416.00,1.31
1415.50,1.20
1415.00,1.12
1414.50,1.06
1414.00,1.01
1413.50,0.96
1413.00,0.93
1412.50,0.92
1412.00,0.91
1411.50,0.90
1411.00,0.91
1410.50,0.93
1410.00,0.95
1409.50,0.97
1409.00,1.01
1408.50,1.06
1408.00,1.11
1407.50,1.16
1407.00,1.23
1406.50,1.30
1406.00,1.36
1405.50,1.44
1405.00,1.55
1404.50,1.65
1404.00,1.73
1403.50,1.79
1403.00,1.87
1402.50,1.95
1402.00,2.03
1401.50,2.11
1401.00,2.20
1400.50,2.30
1400.00,2.43
1399.50,2.61
1399.00,2.87
1398.50,3.14
1398.00,3.41
1397.50,3.70
1397.00,4.03
1396.50,4.40
1396.00,4.82
1395.50,5.35
1395.00,6.06
1394.50,6.84
1394.00,7.54
1393.50,8.15
1393.00,8.72
1392.50,9.31
1392.00,9.95
1391.50,10.63
1391.00,11.31
1390.50,11.97
1390.00,12.60
1389.50,13.17
1389.00,13.68
1388.50,14.18
1388.00,14.74
1387.50,15.38
1387.00,15.97
1386.50,16.42
1386.00,16.78
1385.50,17.13
1385.00,17.49
1384.50,17.84
1384.00,18.21
1383.50,18.58
1383.00,18.96
1382.50,19.32
1382.00,19.68
1381.50,20.04
1381.00,20.38
1380.50,20.69
1380.00,20.99
1379.50,21.28
1379.00,21.54
1378.50,21.78
1378.00,21.99
1377.50,22.20
1377.00,22.36
1376.50,22.48
1376.00,22.59
1375.50,22.70
1375.00,22.79
1374.50,22.86
1374.00,22.93
1373.50,23.00
1373.00,23.08
1372.50,23.16
1372.00,23.26
1371.50,23.42
1371.00,23.61
1370.50,23.82
1370.00,24.04
1369.50,24.29
1369.00,24.55
1368.50,24.79
1368.00,25.01
1367.50,25.20
1367.00,25.36
1366.50,25.50
1366.00,25.63
1365.50,25.76
1365.00,25.87
1364.50,25.95
1364.00,26.03
1363.50,26.15
1363.00,26.28
1362.50,26.37
1362.00,26.46
1361.50,26.54
1361.00,26.62
1360.50,26.69
1360.00,26.76
1359.50,26.84
1359.00,26.89
1358.50,26.94
1358.00,27.00
1357.50,27.06
1357.00,27.11
1356.50,27.14
1356.00,27.18
1355.50,27.22
1355.00,27.25
1354.50,27.27
1354.00,27.28
1353.50,27.30
1353.00,27.31
1352.50,27.30
1352.00,27.30
1351.50,27.29
1351.00,27.28
1350.50,27.24
1350.00,27.21
1349.50,27.19
1349.00,27.15
1348.50,27.10
1348.00,27.06
1347.50,27.03
1347.00,26.99
1346.50,26.94
1346.00,26.90
1345.50,26.88
1345.00,26.85
1344.50,26.82
1344.00,26.81
1343.50,26.80
1343.00,26.80
1342.50,26.79
1342.00,26.78
1341.50,26.78
1341.00,26.77
1340.50,26.75
1340.00,26.74
1339.50,26.74
1339.00,26.72
1338.50,26.69
1338.00,26.66
1337.50,26.63
1337.00,26.59
1336.50,26.52
1336.00,26.46
1335.50,26.40
1335.00,26.32
1334.50,26.22
1334.00,26.11
1333.50,26.00
1333.00,25.88
1332.50,25.74
1332.00,25.60
1331.50,25.46
1331.00,25.30
1330.50,25.12
1330.00,24.95
1329.50,24.77
1329.00,24.58
1328.50,24.38
1328.00,24.18
1327.50,23.98
1327.00,23.76
1326.50,23.54
1326.00,23.31
1325.50,23.09
1325.00,22.85
1324.50,22.61
1324.00,22.37
1323.50,22.12
1323.00,21.87
1322.50,21.61
1322.00,21.35
1321.50,21.10
1321.00,20.83
1320.50,20.56
1320.00,20.28
1319.50,20.01
1319.00,19.71
1318.50,19.42
1318.00,19.14
1317.50,18.87
1317.00,18.58
1316.50,18.28
1316.00,17.99
1315.50,17.72
1315.00,17.43
1314.50,17.13
1314.00,16.84
1313.50,16.55
1313.00,16.24
1312.50,15.93
1312.00,15.64
1311.50,15.36
1311.00,15.07
1310.50,14.78
1310.00,14.50
1309.50,14.22
1309.00,13.93
1308.50,13.64
1308.00,13.36
1307.50,13.07
1307.00,12.79
1306.50,12.50
1306.00,12.23
1305.50,11.95
1305.00,11.67
1304.50,11.39
1304.00,11.13
1303.50,10.86
1303.00,10.58
1302.50,10.30
1302.00,10.02
1301.50,9.74
1301.00,9.46
1300.50,9.17
1300.00,8.89
1299.50,8.62
1299.00,8.33
1298.50,8.05
1298.00,7.77
1297.50,7.49
1297.00,7.20
1296.50,6.91
1296.00,6.64
1295.50,6.36
1295.00,6.08
1294.50,5.80
1294.00,5.54
1293.50,5.28
1293.00,5.02
1292.50,4.76
1292.00,4.52
1291.50,4.28
1291.00,4.03
1290.50,3.79
1290.00,3.57
1289.50,3.35
1289.00,3.14
1288.50,2.92
1288.00,2.72
1287.50,2.52
1287.00,2.31
1286.50,2.12
1286.00,1.95
1285.50,1.78
1285.00,1.61
1284.50,1.44
1284.00,1.30
1283.50,1.16
1283.00,1.02
1282.50,0.89
1282.00,0.77
1281.50,0.67
1281.00,0.56
1280.50,0.46
1280.00,0.39
1279.50,0.32
1279.00,0.25
1278.50,0.19
1278.00,0.15
1277.50,0.11
1277.00,0.08
1276.50,0.05
1276.00,0.04
1275.50,0.03
1275.00,0.02
1274.50,0.01
1274.00,0.01
1273.50,0.01
1273.00,0.00
1272.50,0.00
1272.00,0.01
1271.50,0.01
1271.00,0.00
1270.50,0.00
1270.00,0.01
1269.50,0.01
1269.00,0.00
1268.50,0.00
1268.00,0.01
1267.50,0.01
1267.00,0.00
1266.50,0.00
1266.00,0.00
1265.50,0.00
1265.00,0.00
1264.50,0.01
1264.00,0.00
1263.50,0.00
1263.00,0.01
1262.50,0.01
1262.00,0.01
1261.50,0.01
1261.00,0.01
1260.50,0.01
1260.00,0.00
1259.50,0.00
1259.00,0.00
1258.50,0.00
1258.00,0.00
1257.50,0.00
1257.00,0.00
1256.50,0.00
1256.00,0.00
1255.50,0.00
1255.00,0.00
1254.50,0.00
1254.00,0.00
1253.50,0.00
1253.00,0.00
1252.50,0.00
1252.00,0.01
1251.50,0.01
1251.00,0.00
1250.50,0.00
1250.00,0.00
1249.50,0.01
1249.00,0.00
1248.50,0.00
1248.00,0.01
1247.50,0.01
1247.00,0.00
1246.50,0.01
1246.00,0.02
1245.50,0.02
1245.00,0.02
1244.50,0.02
1244.00,0.03
1243.50,0.04
1243.00,0.05
1242.50,0.07
1242.00,0.09
1241.50,0.11
1241.00,0.13
1240.50,0.16
1240.00,0.20
1239.50,0.24
1239.00,0.27
1238.50,0.30
1238.00,0.34
1237.50,0.38
1237.00,0.42
1236.50,0.45
1236.00,0.49
1235.50,0.52
1235.00,0.54
1234.50,0.56
1234.00,0.59
1233.50,0.62
1233.00,0.63
1232.50,0.64
1232.00,0.65
1231.50,0.66
1231.00,0.66
1230.50,0.65
1230.00,0.65
1229.50,0.64
1229.00,0.63
1228.50,0.61
1228.00,0.60
1227.50,0.59
1227.00,0.56
1226.50,0.54
1226.00,0.52
1225.50,0.50
1225.00,0.47
1224.50,0.44
1224.00,0.42
1223.50,0.39
1223.00,0.36
1222.50,0.33
1222.00,0.32
1221.50,0.29
1221.00,0.27
1220.50,0.25
1220.00,0.23
1219.50,0.21
1219.00,0.19
1218.50,0.17
1218.00,0.16
1217.50,0.14
1217.00,0.12
1216.50,0.11
1216.00,0.10
1215.50,0.09
1215.00,0.08
1214.50,0.07
1214.00,0.07
1213.50,0.07
1213.00,0.06
1212.50,0.05
1212.00,0.04
1211.50,0.04
1211.00,0.02
1210.50,0.02
1210.00,0.02
1209.50,0.02
1209.00,0.02
1208.50,0.02
1208.00,0.02
1207.50,0.02
1207.00,0.01
1206.50,0.01
1206.00,0.01
1205.50,0.01
1205.00,0.01
1204.50,0.01
1204.00,0.01
1203.50,0.01
1203.00,0.00
1202.50,0.00
1202.00,0.01
1201.50,0.01
1201.00,0.01
1200.50,0.01
1200.00,0.01
1199.50,0.01
1199.00,0.01
1198.50,0.01
1198.00,0.00
1197.50,0.00
1197.00,0.00
1196.50,0.00
1196.00,0.01
1195.50,0.01
1195.00,0.00
1194.50,0.01
1194.00,0.00
1193.50,0.00
1193.00,0.01
1192.50,0.01
1192.00,0.01
1191.50,0.01
1191.00,0.01
1190.50,0.01
1190.00,0.01
1189.50,0.00
1189.00,0.00
1188.50,0.00
1188.00,0.00
1187.50,0.01
1187.00,0.00
1186.50,0.00
1186.00,0.01
1185.50,0.01
1185.00,0.01
1184.50,0.01
1184.00,0.01
1183.50,0.01
1183.00,0.01
1182.50,0.00
1182.00,0.00
1181.50,0.01
1181.00,0.01
1180.50,0.01
1180.00,0.01
1179.50,0.00
1179.00,0.01
1178.50,0.01
1178.00,0.00
1177.50,0.01
1177.00,0.01
1176.50,0.01
1176.00,0.00
1175.50,0.00
1175.00,0.01
1174.50,0.01
1174.00,0.00
1173.50,0.00
1173.00,0.01
1172.50,0.01
1172.00,0.00
1171.50,0.00
1171.00,0.01
1170.50,0.01
1170.00,0.01
1169.50,0.01
1169.00,0.01
1168.50,0.01
1168.00,0.01
1167.50,0.00
1167.00,0.00
1166.50,0.00
1166.00,0.00
1165.50,0.00
1165.00,0.00
1164.50,0.00
1164.00,0.00
1163.50,0.00
1163.00,0.01
1162.50,0.01
1162.00,0.00
1161.50,0.00
1161.00,0.00
1160.50,0.01
1160.00,0.00
1159.50,0.00
1159.00,0.01
1158.50,0.01
1158.00,0.01
1157.50,0.00
1157.00,0.01
1156.50,0.01
1156.00,0.00
1155.50,0.01
1155.00,0.01
1154.50,0.00
1154.00,0.00
1153.50,0.01
1153.00,0.01
1152.50,0.01
1152.00,0.01
1151.50,0.00
1151.00,0.01
1150.50,0.01
1150.00,0.00
1149.50,0.00
1149.00,0.01
1148.50,0.01
1148.00,0.01
1147.50,0.01
1147.00,0.01
1146.50,0.01
1146.00,0.01
1145.50,0.00
1145.00,0.01
1144.50,0.01
1144.00,0.00
1143.50,0.00
1143.00,0.00
1142.50,0.00
1142.00,0.00
1141.50,0.00
1141.00,0.01
1140.50,0.01
1140.00,0.00
1139.50,0.00
1139.00,0.00
1138.50,0.00
1138.00,0.00
1137.50,0.00
1137.00,0.00
1136.50,0.00
1136.00,0.00
1135.50,0.00
1135.00,0.01
1134.50,0.01
1134.00,0.01
1133.50,0.01
1133.00,0.01
1132.50,0.01
1132.00,0.00
1131.50,0.00
1131.00,0.01
1130.50,0.01
1130.00,0.01
1129.50,0.00
1129.00,0.01
1128.50,0.01
1128.00,0.00
1127.50,0.00
1127.00,0.01
1126.50,0.01
1126.00,0.00
1125.50,0.00
1125.00,0.01
1124.50,0.01
1124.00,0.00
1123.50,0.01
1123.00,0.01
1122.50,0.01
1122.00,0.01
1121.50,0.01
1121.00,0.00
1120.50,0.01
1120.00,0.00
1119.50,0.00
1119.00,0.01
1118.50,0.01
1118.00,0.00
1117.50,0.00
1117.00,0.00
1116.50,0.01
1116.00,0.01
1115.50,0.00
1115.00,0.01
1114.50,0.01
1114.00,0.00
1113.50,0.00
1113.00,0.00
1112.50,0.00
1112.00,0.00
1111.50,0.00
1111.00,0.01
1110.50,0.01
1110.00,0.01
1109.50,0.00
1109.00,0.00
1108.50,0.01
1108.00,0.01
1107.50,0.01
1107.00,0.01
1106.50,0.01
1106.00,0.01
1105.50,0.01
1105.00,0.01
1104.50,0.01
1104.00,0.00
1103.50,0.00
1103.00,0.00
1102.50,0.00
1102.00,0.00
1101.50,0.00
1101.00,0.01
1100.50,0.01
1100.00,0.00
1099.50,0.01
1099.00,0.01
1098.50,0.01
1098.00,0.01
1097.50,0.00
1097.00,0.00
1096.50,0.01
1096.00,0.00
1095.50,0.00
1095.00,0.00
1094.50,0.00
1094.00,0.00
1093.50,0.00
1093.00,0.00
1092.50,0.00
1092.00,0.00
1091.50,0.01
1091.00,0.00
1090.50,0.00
1090.00,0.01
1089.50,0.01
1089.00,0.00
1088.50,0.01
1088.00,0.01
1087.50,0.00
1087.00,0.00
1086.50,0.00
1086.00,0.01
1085.50,0.01
1085.00,0.00
1084.50,0.00
1084.00,0.00
1083.50,0.00
1083.00,0.01
1082.50,0.01
1082.00,0.00
1081.50,0.01
1081.00,0.01
1080.50,0.01
1080.00,0.01
1079.50,0.01
1079.00,0.01
1078.50,0.01
1078.00,0.01
1077.50,0.01
1077.00,0.01
1076.50,0.01
1076.00,0.01
1075.50,0.00
1075.00,0.00
1074.50,0.01
1074.00,0.01
1073.50,0.01
1073.00,0.01
1072.50,0.01
1072.00,0.00
1071.50,0.00
1071.00,0.01
1070.50,0.01
1070.00,0.01
1069.50,0.00
1069.00,0.01
1068.50,0.01
1068.00,0.01
1067.50,0.01
1067.00,0.01
1066.50,0.01
1066.00,0.00
1065.50,0.00
1065.00,0.01
1064.50,0.01
1064.00,0.00
1063.50,0.01
1063.00,0.01
1062.50,0.00
1062.00,0.00
1061.50,0.01
1061.00,0.01
1060.50,0.01
1060.00,0.00
1059.50,0.00
1059.00,0.00
1058.50,0.00
1058.00,0.00
1057.50,0.00
1057.00,0.00
1056.50,0.00
1056.00,0.00
1055.50,0.01
1055.00,0.00
1054.50,0.00
1054.00,0.01
1053.50,0.01
1053.00,0.01
1052.50,0.01
1052.00,0.01
1051.50,0.00
1051.00,0.01
1050.50,0.01
1050.00,0.00
1049.50,0.00
1049.00,0.00
1048.50,0.00
1048.00,0.00
1047.50,0.00
1047.00,0.00
1046.50,0.00
1046.00,0.00
1045.50,0.00
1045.00,0.00
1044.50,0.00
1044.00,0.01
1043.50,0.01
1043.00,0.00
1042.50,0.00
1042.00,0.00
1041.50,0.00
1041.00,0.01
1040.50,0.01
1040.00,0.01
1039.50,0.00
1039.00,0.00
1038.50,0.00
1038.00,0.01
1037.50,0.01
1037.00,0.00
1036.50,0.00
1036.00,0.00
1035.50,0.00
1035.00,0.01
1034.50,0.01
1034.00,0.01
1033.50,0.01
1033.00,0.01
1032.50,0.01
1032.00,0.01
1031.50,0.01
1031.00,0.01
1030.50,0.01
1030.00,0.01
1029.50,0.01
1029.00,0.01
1028.50,0.01
1028.00,0.01
1027.50,0.00
1027.00,0.00
1026.50,0.00
1026.00,0.01
1025.50,0.01
1025.00,0.00
1024.50,0.00
1024.00,0.00
1023.50,0.01
1023.00,0.01
1022.50,0.01
1022.00,0.01
1021.50,0.01
1021.00,0.01
1020.50,0.01
1020.00,0.01
1019.50,0.01
1019.00,0.01
1018.50,0.01
1018.00,0.00
1017.50,0.00
1017.00,0.00
1016.50,0.00
1016.00,0.00
1015.50,0.00
1015.00,0.01
1014.50,0.01
1014.00,0.01
1013.50,0.00
1013.00,0.00
1012.50,0.01
1012.00,0.01
1011.50,0.00
1011.00,0.01
1010.50,0.01
1010.00,0.00
1009.50,0.00
1009.00,0.01
1008.50,0.01
1008.00,0.00
1007.50,0.00
1007.00,0.00
1006.50,0.00
1006.00,0.01
1005.50,0.01
1005.00,0.00
1004.50,0.00
1004.00,0.00
1003.50,0.01
1003.00,0.01
1002.50,0.01
1002.00,0.01
1001.50,0.01
1001.00,0.01
1000.50,0.01
1000.00,0.00
999.50,0.00
999.00,0.00
998.50,0.00
998.00,0.00
997.50,0.00
997.00,0.00
996.50,0.00
996.00,0.00
995.50,0.00
995.00,0.00
994.50,0.00
994.00,0.00
993.50,0.00
993.00,0.00
992.50,0.00
992.00,0.00
991.50,0.01
991.00,0.01
990.50,0.01
990.00,0.02
989.50,0.02
989.00,0.02
988.50,0.02
988.00,0.03
987.50,0.04
987.00,0.04
986.50,0.05
986.00,0.06
985.50,0.07
985.00,0.08
984.50,0.09
984.00,0.11
983.50,0.13
983.00,0.15
982.50,0.17
982.00,0.20
981.50,0.22
981.00,0.25
980.50,0.29
980.00,0.32
979.50,0.36
979.00,0.40
978.50,0.44
978.00,0.49
977.50,0.54
977.00,0.58
976.50,0.64
976.00,0.70
975.50,0.76
975.00,0.81
974.50,0.87
974.00,0.93
973.50,0.99
973.00,1.05
972.50,1.11
972.00,1.18
971.50,1.25
971.00,1.32
970.50,1.38
970.00,1.45
969.50,1.52
969.00,1.58
968.50,1.65
968.00,1.71
967.50,1.78
967.00,1.83
966.50,1.89
966.00,1.94
965.50,2.00
965.00,2.04
964.50,2.09
964.00,2.13
963.50,2.17
963.00,2.20
962.50,2.23
962.00,2.27
961.50,2.30
961.00,2.32
960.50,2.35
960.00,2.38
959.50,2.40
959.00,2.43
958.50,2.46
958.00,2.50
957.50,2.54
957.00,2.59
956.50,2.64
956.00,2.71
955.50,2.78
955.00,2.87
954.50,2.97
954.00,3.10
953.50,3.23
953.00,3.37
952.50,3.53
952.00,3.70
951.50,3.88
951.00,4.06
950.50,4.23
950.00,4.39
949.50,4.55
949.00,4.69
948.50,4.83
948.00,4.96
947.50,5.08
947.00,5.19
946.50,5.28
946.00,5.37
945.50,5.45
945.00,5.52
944.50,5.58
944.00,5.64
943.50,5.68
943.00,5.72
942.50,5.75
942.00,5.78
941.50,5.80
941.00,5.81
940.50,5.80
940.00,5.79
939.50,5.78
939.00,5.75
938.50,5.71
938.00,5.67
937.50,5.61
937.00,5.55
936.50,5.47
936.00,5.39
935.50,5.30
935.00,5.19
934.50,5.07
934.00,4.95
933.50,4.81
933.00,4.67
932.50,4.52
932.00,4.36
931.50,4.20
931.00,4.03
930.50,3.86
930.00,3.70
929.50,3.54
929.00,3.37
928.50,3.22
928.00,3.07
927.50,2.94
927.00,2.80
926.50,2.68
926.00,2.56
925.50,2.45
925.00,2.34
924.50,2.22
924.00,2.10
923.50,1.98
923.00,1.85
922.50,1.72
922.00,1.59
921.50,1.46
921.00,1.32
920.50,1.19
920.00,1.07
919.50,0.95
919.00,0.84
918.50,0.74
918.00,0.65
917.50,0.58
917.00,0.52
916.50,0.47
916.00,0.43
915.50,0.39
915.00,0.36
914.50,0.34
914.00,0.32
913.50,0.31
913.00,0.29
912.50,0.28
912.00,0.28
911.50,0.28
911.00,0.29
910.50,0.29
910.00,0.31
909.50,0.32
909.00,0.33
908.50,0.34
908.00,0.36
907.50,0.38
907.00,0.39
906.50,0.40
906.00,0.42
905.50,0.43
905.00,0.43
904.50,0.43
904.00,0.43
903.50,0.43
903.00,0.42
902.50,0.40
902.00,0.39
901.50,0.37
901.00,0.34
900.50,0.31
900.00,0.29
899.50,0.27
899.00,0.23
898.50,0.20
898.00,0.18
897.50,0.17
897.00,0.15
896.50,0.13
896.00,0.12
895.50,0.11
895.00,0.09
894.50,0.08
894.00,0.08
893.50,0.07
893.00,0.06
892.50,0.05
892.00,0.04
891.50,0.04
891.00,0.04
890.50,0.03
890.00,0.03
889.50,0.03
889.00,0.02
888.50,0.01
888.00,0.01
887.50,0.02
887.00,0.01
886.50,0.01
886.00,0.01
885.50,0.01
885.00,0.00
884.50,0.01
884.00,0.01
883.50,0.01
883.00,0.01
882.50,0.01
882.00,0.01
881.50,0.01
881.00,0.00
880.50,0.00
880.00,0.00
879.50,0.01
879.00,0.00
878.50,0.00
878.00,0.00
877.50,0.00
877.00,0.01
876.50,0.01
876.00,0.01
875.50,0.00
875.00,0.00
874.50,0.00
874.00,0.00
873.50,0.00
873.00,0.01
872.50,0.01
872.00,0.00
871.50,0.00
871.00,0.01
870.50,0.01
870.00,0.01
869.50,0.00
869.00,0.00
868.50,0.00
868.00,0.00
867.50,0.01
867.00,0.01
866.50,0.01
866.00,0.00
865.50,0.00
865.00,0.01
864.50,0.01
864.00,0.01
863.50,0.01
863.00,0.00
862.50,0.01
862.00,0.01
861.50,0.01
861.00,0.01
860.50,0.02
860.00,0.01
859.50,0.01
859.00,0.01
858.50,0.01
858.00,0.01
857.50,0.00
857.00,0.00
856.50,0.00
856.00,0.00
855.50,0.01
855.00,0.01
854.50,0.01
854.00,0.01
853.50,0.01
853.00,0.01
852.50,0.00
852.00,0.01
851.50,0.01
851.00,0.00
850.50,0.00
850.00,0.00
849.50,0.01
849.00,0.01
848.50,0.00
848.00,0.00
847.50,0.00
847.00,0.01
846.50,0.01
846.00,0.01
845.50,0.01
845.00,0.01
844.50,0.02
844.00,0.02
843.50,0.01
843.00,0.01
842.50,0.01
842.00,0.01
841.50,0.01
841.00,0.02
840.50,0.02
840.00,0.01
839.50,0.00
839.00,0.01
838.50,0.01
838.00,0.00
837.50,0.00
837.00,0.00
836.50,0.01
836.00,0.01
835.50,0.01
835.00,0.01
834.50,0.01
834.00,0.01
833.50,0.01
833.00,0.01
832.50,0.01
832.00,0.01
831.50,0.01
831.00,0.01
830.50,0.01
830.00,0.00
829.50,0.01
829.00,0.00
828.50,0.01
828.00,0.01
827.50,0.00
827.00,0.01
826.50,0.01
826.00,0.01
825.50,0.02
825.00,0.02
824.50,0.02
824.00,0.01
823.50,0.01
823.00,0.01
822.50,0.01
822.00,0.01
821.50,0.01
821.00,0.01
820.50,0.01
820.00,0.01
819.50,0.01
819.00,0.01
818.50,0.02
818.00,0.02
817.50,0.01
817.00,0.01
816.50,0.01
816.00,0.01
815.50,0.00
815.00,0.01
814.50,0.01
814.00,0.01
813.50,0.01
813.00,0.01
812.50,0.01
812.00,0.01
811.50,0.01
811.00,0.01
810.50,0.02
810.00,0.02
809.50,0.02
809.00,0.01
808.50,0.01
808.00,0.01
807.50,0.01
807.00,0.01
806.50,0.02
806.00,0.01
805.50,0.01
805.00,0.01
804.50,0.01
804.00,0.01
803.50,0.01
803.00,0.01
802.50,0.01
802.00,0.00
801.50,0.00
801.00,0.01
800.50,0.01
800.00,0.01
799.50,0.01
799.00,0.01
798.50,0.00
798.00,0.00
797.50,0.01
797.00,0.01
796.50,0.00
796.00,0.00
795.50,0.01
795.00,0.00
794.50,0.01
794.00,0.01
793.50,0.01
793.00,0.02
792.50,0.02
792.00,0.01
791.50,0.01
791.00,0.01
790.50,0.01
790.00,0.00
789.50,0.00
789.00,0.00
788.50,0.01
788.00,0.00
787.50,0.00
787.00,0.01
786.50,0.01
786.00,0.01
785.50,0.01
785.00,0.00
784.50,0.00
784.00,0.01
783.50,0.01
783.00,0.00
782.50,0.01
782.00,0.01
781.50,0.01
781.00,0.01
780.50,0.01
780.00,0.01
779.50,0.01
779.00,0.01
778.50,0.01
778.00,0.01
777.50,0.01
777.00,0.01
776.50,0.01
776.00,0.01
775.50,0.01
775.00,0.01
774.50,0.01
774.00,0.01
773.50,0.01
773.00,0.01
772.50,0.01
772.00,0.01
771.50,0.01
771.00,0.02
770.50,0.02
770.00,0.02
769.50,0.01
769.00,0.01
768.50,0.01
768.00,0.01
767.50,0.01
767.00,0.01
766.50,0.01
766.00,0.01
765.50,0.00
765.00,0.01
764.50,0.01
764.00,0.01
763.50,0.00
763.00,0.01
762.50,0.02
762.00,0.01
761.50,0.01
761.00,0.01
760.50,0.01
760.00,0.01
759.50,0.00
759.00,0.01
758.50,0.01
758.00,0.01
757.50,0.01
757.00,0.01
756.50,0.02
756.00,0.01
755.50,0.01
755.00,0.01
754.50,0.01
754.00,0.01
753.50,0.00
753.00,0.01
752.50,0.01
752.00,0.02
751.50,0.03
751.00,0.06
750.50,0.09
750.00,0.12
749.50,0.16
749.00,0.21
748.50,0.27
748.00,0.34
747.50,0.41
747.00,0.48
746.50,0.55
746.00,0.62
745.50,0.69
745.00,0.77
744.50,0.84
744.00,0.92
743.50,1.00
743.00,1.07
742.50,1.14
742.00,1.21
741.50,1.29
741.00,1.36
740.50,1.43
740.00,1.50
739.50,1.57
739.00,1.64
738.50,1.70
738.00,1.77
737.50,1.84
737.00,1.92
736.50,1.98
736.00,2.05
735.50,2.12
735.00,2.17
734.50,2.22
734.00,2.27
733.50,2.31
733.00,2.36
732.50,2.39
732.00,2.42
731.50,2.45
731.00,2.47
730.50,2.49
730.00,2.51
729.50,2.52
729.00,2.54
728.50,2.54
728.00,2.55
727.50,2.55
727.00,2.55
726.50,2.54
726.00,2.54
725.50,2.52
725.00,2.51
724.50,2.49
724.00,2.47
723.50,2.45
723.00,2.42
722.50,2.40
722.00,2.37
721.50,2.33
721.00,2.29
720.50,2.23
720.00,2.18
719.50,2.12
719.00,2.05
718.50,1.98
718.00,1.89
717.50,1.81
717.00,1.71
716.50,1.61
716.00,1.51
715.50,1.40
715.00,1.30
714.50,1.19
714.00,1.07
713.50,0.96
713.00,0.85
712.50,0.74
712.00,0.64
711.50,0.55
711.00,0.46
710.50,0.39
710.00,0.33
709.50,0.29
709.00,0.24
708.50,0.21
708.00,0.18
707.50,0.16
707.00,0.15
706.50,0.14
706.00,0.13
705.50,0.12
705.00,0.11
704.50,0.10
704.00,0.10
703.50,0.10
703.00,0.11
702.50,0.12
702.00,0.12
701.50,0.13
701.00,0.12
700.50,0.12
700.00,0.11
699.50,0.12
699.00,0.12
698.50,0.11
698.00,0.12
697.50,0.12
697.00,0.13
696.50,0.13
696.00,0.13
695.50,0.13
695.00,0.13
694.50,0.13
694.00,0.12
693.50,0.12
693.00,0.12
692.50,0.12
692.00,0.11
691.50,0.11
691.00,0.11
690.50,0.11
690.00,0.11
689.50,0.12
689.00,0.13
688.50,0.14
688.00,0.14
687.50,0.15
687.00,0.16
686.50,0.16
686.00,0.18
685.50,0.19
685.00,0.21
684.50,0.23
684.00,0.25
683.50,0.27
683.00,0.29
682.50,0.31
682.00,0.35
681.50,0.39
681.00,0.43
680.50,0.48
680.00,0.52
679.50,0.58
679.00,0.63
678.50,0.67
678.00,0.71
677.50,0.76
677.00,0.80
676.50,0.84
676.00,0.88
675.50,0.91
675.00,0.95
674.50,0.98
674.00,1.02
673.50,1.05
673.00,1.08
672.50,1.10
672.00,1.12
671.50,1.14
671.00,1.15
670.50,1.15
670.00,1.15
669.50,1.15
669.00,1.15
668.50,1.15
668.00,1.16
667.50,1.15
667.00,1.14
666.50,1.12
666.00,1.10
665.50,1.07
665.00,1.04
664.50,1.01
664.00,0.97
663.50,0.92
663.00,0.88
662.50,0.84
662.00,0.80
661.50,0.78
661.00,0.78
660.50,0.81
660.00,0.90
659.50,1.09
659.00,1.38
658.50,1.81
658.00,2.37
657.50,3.05
657.00,3.81
656.50,4.62
656.00,5.42
655.50,6.18
655.00,6.88
654.50,7.50
654.00,8.06
653.50,8.55
653.00,8.97
652.50,9.32
652.00,9.62
651.50,9.88
651.00,10.09
650.50,10.26
650.00,10.41
649.50,10.53
649.00,10.62
648.50,10.67
648.00,10.70
647.50,10.72
647.00,10.72
646.50,10.71
646.00,10.69
645.50,10.66
645.00,10.61
644.50,10.53
644.00,10.45
643.50,10.37
643.00,10.27
642.50,10.17
642.00,10.06
641.50,9.94
641.00,9.81
640.50,9.68
640.00,9.55
639.50,9.42
639.00,9.28
638.50,9.14
638.00,9.00
637.50,8.87
637.00,8.74
636.50,8.62
636.00,8.51
635.50,8.40
635.00,8.31
634.50,8.22
634.00,8.14
633.50,8.07
633.00,7.99
632.50,7.92
632.00,7.84
631.50,7.78
631.00,7.73
630.50,7.68
630.00,7.65
629.50,7.62
629.00,7.59
628.50,7.55
628.00,7.53
627.50,7.52
627.00,7.51
626.50,7.51
626.00,7.50
625.50,7.51
625.00,7.51
624.50,7.52
624.00,7.52
623.50,7.53
623.00,7.54
622.50,7.55
622.00,7.57
621.50,7.61
621.00,7.64
620.50,7.67
620.00,7.69
619.50,7.72
619.00,7.74
618.50,7.76
618.00,7.78
617.50,7.78
617.00,7.77
616.50,7.76
616.00,7.74
615.50,7.73
615.00,7.72
614.50,7.71
614.00,7.69
613.50,7.68
613.00,7.66
612.50,7.64
612.00,7.61
611.50,7.57
611.00,7.51
610.50,7.43
610.00,7.31
609.50,7.16
609.00,6.99
608.50,6.77
608.00,6.52
607.50,6.24
607.00,5.92
606.50,5.57
606.00,5.20
605.50,4.81
605.00,4.42
604.50,4.04
604.00,3.67
603.50,3.34
603.00,3.06
602.50,2.84
602.00,2.66
601.50,2.54
601.00,2.46
600.50,2.42
600.00,2.42
599.50,2.46
599.00,2.53
598.50,2.62
598.00,2.73
597.50,2.84
597.00,2.96
596.50,3.07
596.00,3.18
595.50,3.29
595.00,3.41
594.50,3.51
594.00,3.59
593.50,3.64
593.00,3.69
592.50,3.72
592.00,3.74
591.50,3.74
591.00,3.71
590.50,3.67
590.00,3.60
589.50,3.53
589.00,3.46
588.50,3.38
588.00,3.29
587.50,3.18
587.00,3.06
586.50,2.93
586.00,2.80
585.50,2.67
585.00,2.54
584.50,2.41
584.00,2.28
583.50,2.16
583.00,2.05
582.50,1.96
582.00,1.86
581.50,1.76
581.00,1.66
580.50,1.57
580.00,1.50
579.50,1.44
579.00,1.38
578.50,1.33
578.00,1.26
577.50,1.20
577.00,1.15
576.50,1.12
576.00,1.08
575.50,1.03
575.00,1.00
574.50,0.96
574.00,0.93
573.50,0.90
573.00,0.88
572.50,0.86
572.00,0.85
571.50,0.83
571.00,0.81
570.50,0.80
570.00,0.79
569.50,0.78
569.00,0.77
568.50,0.75
568.00,0.73
567.50,0.70
567.00,0.69
566.50,0.67
566.00,0.66
565.50,0.66
565.00,0.66
564.50,0.66
564.00,0.65
563.50,0.64
563.00,0.63
562.50,0.63
562.00,0.61
561.50,0.59
561.00,0.58
560.50,0.57
560.00,0.57
559.50,0.56
559.00,0.55
558.50,0.55
558.00,0.53
557.50,0.52
557.00,0.51
556.50,0.51
556.00,0.51
555.50,0.51
555.00,0.51
554.50,0.49
554.00,0.47
553.50,0.46
553.00,0.45
552.50,0.46
552.00,0.46
551.50,0.46
551.00,0.47
550.50,0.47
550.00,0.45
549.50,0.42
549.00,0.41
548.50,0.39
548.00,0.39
547.50,0.39
547.00,0.40
546.50,0.41
546.00,0.40
545.50,0.39
545.00,0.38
544.50,0.37
544.00,0.35
543.50,0.33
543.00,0.33
542.50,0.33
542.00,0.32
541.50,0.31
541.00,0.31
540.50,0.31
540.00,0.31
539.50,0.32
539.00,0.34
538.50,0.35
538.00,0.34
537.50,0.33
537.00,0.31
536.50,0.29
536.00,0.25
535.50,0.23
535.00,0.23
534.50,0.24
534.00,0.24
533.50,0.25
533.00,0.25
532.50,0.26
532.00,0.25
531.50,0.23
531.00,0.22
530.50,0.21
530.00,0.19
529.50,0.19
529.00,0.19
528.50,0.21
528.00,0.22
527.50,0.23
527.00,0.23
526.50,0.22
526.00,0.19
525.50,0.16
525.00,0.16
524.50,0.16
524.00,0.15
523.50,0.15
523.00,0.15
522.50,0.16
522.00,0.15
521.50,0.15
521.00,0.15
520.50,0.15
520.00,0.14
519.50,0.12
519.00,0.12
518.50,0.14
518.00,0.16
517.50,0.16
517.00,0.17
516.50,0.17
516.00,0.15
515.50,0.14
515.00,0.14
514.50,0.14
514.00,0.13
513.50,0.13
513.00,0.13
512.50,0.14
512.00,0.14
511.50,0.14
511.00,0.16
510.50,0.16
510.00,0.14
509.50,0.12
509.00,0.11
508.50,0.12
508.00,0.11
507.50,0.10
507.00,0.11
506.50,0.13
506.00,0.13
505.50,0.12
505.00,0.12
504.50,0.12
504.00,0.10
503.50,0.07
503.00,0.07
502.50,0.08
502.00,0.07
501.50,0.08
501.00,0.10
500.50,0.13
500.00,0.13
499.50,0.13
499.00,0.13
498.50,0.12
498.00,0.09
497.50,0.06
497.00,0.05
496.50,0.06
496.00,0.06
495.50,0.05
495.00,0.04
494.50,0.05
494.00,0.07
493.50,0.07
493.00,0.08
492.50,0.11
492.00,0.10
491.50,0.09
491.00,0.09
490.50,0.09
490.00,0.08
489.50,0.05
489.00,0.05
488.50,0.07
488.00,0.07
487.50,0.07
487.00,0.09
486.50,0.09
486.00,0.06
485.50,0.03
485.00,0.03
484.50,0.06
484.00,0.09
483.50,0.10
483.00,0.09
482.50,0.08
482.00,0.04
481.50,0.01
481.00,0.02
480.50,0.04
480.00,0.05
479.50,0.04
479.00,0.04
478.50,0.04
478.00,0.03
477.50,0.02
477.00,0.02
476.50,0.04
476.00,0.05
475.50,0.05
475.00,0.03
474.50,0.04
474.00,0.02
473.50,0.04
473.00,0.05
472.50,0.03
472.00,0.04
471.50,0.06
471.00,0.05
470.50,0.07
470.00,0.07
469.50,0.08
469.00,0.12
468.50,0.15
468.00,0.13
467.50,0.10
467.00,0.07
466.50,0.06
466.00,0.07
465.50,0.06
465.00,0.06
464.50,0.06
464.00,0.06
463.50,0.07
463.00,0.07
462.50,0.07
462.00,0.08
461.50,0.09
461.00,0.10
460.50,0.11
460.00,0.11
459.50,0.08
459.00,0.05
458.50,0.05
458.00,0.08
457.50,0.09
457.00,0.04
456.50,0.04
456.00,0.07
455.50,0.07
455.00,0.06
454.50,0.06
454.00,0.03
453.50,0.02
453.00,0.04
452.50,0.07
452.00,0.11
451.50,0.12
451.00,0.12
450.50,0.11
450.00,0.10
449.50,0.09
449.00,0.03
448.50,0.06
448.00,0.11
447.50,0.15
447.00,0.16
446.50,0.13
446.00,0.05
445.50,0.05
445.00,0.07
444.50,0.05
444.00,0.05
443.50,0.08
443.00,0.11
442.50,0.11
442.00,0.08
441.50,0.03
441.00,0.05
440.50,0.13
440.00,0.14
439.50,0.14
439.00,0.15
438.50,0.14
438.00,0.07
437.50,0.03
437.00,0.01
436.50,0.05
436.00,0.07
435.50,0.01
435.00,0.03
434.50,0.05
434.00,0.06
433.50,0.06
433.00,0.03
432.50,0.05
432.00,0.13
431.50,0.19
431.00,0.18
430.50,0.11
430.00,0.08
429.50,0.07
429.00,0.03
428.50,0.04
428.00,0.06
427.50,0.03
427.00,0.08
426.50,0.18
426.00,0.20
425.50,0.15
425.00,0.11
424.50,0.12
424.00,0.16
423.50,0.17
423.00,0.15
422.50,0.17
422.00,0.13
421.50,0.06
421.00,0.05
420.50,0.14
420.00,0.31
419.50,0.54
419.00,0.62
418.50,0.39
418.00,0.11
417.50,0.17
417.00,0.27
416.50,0.23
416.00,0.16
415.50,0.06
415.00,0.05
414.50,0.15
414.00,0.14
413.50,0.08
413.00,0.09
412.50,0.17
412.00,0.22
411.50,0.22
411.00,0.15
410.50,0.08
410.00,0.05
409.50,0.04
409.00,0.06
408.50,0.07
408.00,0.09
407.50,0.16
407.00,0.15
406.50,0.09
406.00,0.08
405.50,0.11
405.00,0.21
404.50,0.36
404.00,0.36
403.50,0.18
403.00,0.13
402.50,0.28
402.00,0.26
401.50,0.21
401.00,0.18
400.50,0.16
400.00,0.17
