Created as New Dataset,Sample 163 By irlear Date Thursday, June 06 2019
cm-1,%T
4000.00,79.28
3999.50,79.30
3999.00,79.33
3998.50,79.35
3998.00,79.37
3997.50,79.39
3997.00,79.41
3996.50,79.43
3996.00,79.45
3995.50,79.48
3995.00,79.50
3994.50,79.52
3994.00,79.54
3993.50,79.56
3993.00,79.58
3992.50,79.61
3992.00,79.63
3991.50,79.65
3991.00,79.68
3990.50,79.70
3990.00,79.72
3989.50,79.75
3989.00,79.77
3988.50,79.79
3988.00,79.81
3987.50,79.83
3987.00,79.86
3986.50,79.89
3986.00,79.92
3985.50,79.94
3985.00,79.97
3984.50,79.99
3984.00,80.00
3983.50,80.02
3983.00,80.03
3982.50,80.05
3982.00,80.07
3981.50,80.09
3981.00,80.11
3980.50,80.13
3980.00,80.15
3979.50,80.17
3979.00,80.19
3978.50,80.22
3978.00,80.24
3977.50,80.27
3977.00,80.29
3976.50,80.31
3976.00,80.33
3975.50,80.35
3975.00,80.36
3974.50,80.38
3974.00,80.41
3973.50,80.43
3973.00,80.45
3972.50,80.47
3972.00,80.49
3971.50,80.50
3971.00,80.52
3970.50,80.54
3970.00,80.56
3969.50,80.58
3969.00,80.60
3968.50,80.62
3968.00,80.64
3967.50,80.66
3967.00,80.67
3966.50,80.69
3966.00,80.71
3965.50,80.73
3965.00,80.75
3964.50,80.77
3964.00,80.78
3963.50,80.80
3963.00,80.83
3962.50,80.85
3962.00,80.87
3961.50,80.89
3961.00,80.90
3960.50,80.91
3960.00,80.92
3959.50,80.94
3959.00,80.95
3958.50,80.97
3958.00,80.98
3957.50,80.99
3957.00,81.01
3956.50,81.02
3956.00,81.03
3955.50,81.04
3955.00,81.05
3954.50,81.06
3954.00,81.07
3953.50,81.08
3953.00,81.09
3952.50,81.09
3952.00,81.08
3951.50,81.08
3951.00,81.09
3950.50,81.11
3950.00,81.12
3949.50,81.13
3949.00,81.15
3948.50,81.16
3948.00,81.18
3947.50,81.18
3947.00,81.18
3946.50,81.18
3946.00,81.18
3945.50,81.18
3945.00,81.18
3944.50,81.17
3944.00,81.17
3943.50,81.19
3943.00,81.21
3942.50,81.24
3942.00,81.25
3941.50,81.27
3941.00,81.28
3940.50,81.29
3940.00,81.30
3939.50,81.32
3939.00,81.33
3938.50,81.34
3938.00,81.35
3937.50,81.36
3937.00,81.37
3936.50,81.38
3936.00,81.39
3935.50,81.40
3935.00,81.41
3934.50,81.41
3934.00,81.41
3933.50,81.42
3933.00,81.43
3932.50,81.44
3932.00,81.44
3931.50,81.44
3931.00,81.45
3930.50,81.46
3930.00,81.47
3929.50,81.47
3929.00,81.47
3928.50,81.46
3928.00,81.45
3927.50,81.43
3927.00,81.41
3926.50,81.39
3926.00,81.39
3925.50,81.41
3925.00,81.44
3924.50,81.47
3924.00,81.48
3923.50,81.47
3923.00,81.46
3922.50,81.44
3922.00,81.42
3921.50,81.41
3921.00,81.41
3920.50,81.42
3920.00,81.42
3919.50,81.41
3919.00,81.40
3918.50,81.40
3918.00,81.41
3917.50,81.42
3917.00,81.41
3916.50,81.39
3916.00,81.37
3915.50,81.35
3915.00,81.34
3914.50,81.33
3914.00,81.32
3913.50,81.31
3913.00,81.30
3912.50,81.28
3912.00,81.27
3911.50,81.26
3911.00,81.25
3910.50,81.23
3910.00,81.22
3909.50,81.20
3909.00,81.18
3908.50,81.16
3908.00,81.12
3907.50,81.09
3907.00,81.07
3906.50,81.05
3906.00,81.06
3905.50,81.09
3905.00,81.11
3904.50,81.10
3904.00,81.07
3903.50,81.03
3903.00,81.01
3902.50,81.00
3902.00,80.97
3901.50,80.92
3901.00,80.88
3900.50,80.86
3900.00,80.85
3899.50,80.85
3899.00,80.84
3898.50,80.82
3898.00,80.81
3897.50,80.80
3897.00,80.78
3896.50,80.75
3896.00,80.73
3895.50,80.71
3895.00,80.70
3894.50,80.68
3894.00,80.66
3893.50,80.65
3893.00,80.64
3892.50,80.66
3892.00,80.68
3891.50,80.68
3891.00,80.64
3890.50,80.61
3890.00,80.59
3889.50,80.58
3889.00,80.56
3888.50,80.54
3888.00,80.51
3887.50,80.49
3887.00,80.49
3886.50,80.51
3886.00,80.54
3885.50,80.53
3885.00,80.51
3884.50,80.49
3884.00,80.48
3883.50,80.46
3883.00,80.43
3882.50,80.38
3882.00,80.33
3881.50,80.31
3881.00,80.32
3880.50,80.34
3880.00,80.35
3879.50,80.36
3879.00,80.36
3878.50,80.36
3878.00,80.35
3877.50,80.33
3877.00,80.30
3876.50,80.26
3876.00,80.21
3875.50,80.17
3875.00,80.17
3874.50,80.19
3874.00,80.19
3873.50,80.18
3873.00,80.16
3872.50,80.14
3872.00,80.11
3871.50,80.10
3871.00,80.11
3870.50,80.13
3870.00,80.11
3869.50,80.04
3869.00,79.99
3868.50,79.96
3868.00,79.92
3867.50,79.88
3867.00,79.84
3866.50,79.80
3866.00,79.79
3865.50,79.78
3865.00,79.75
3864.50,79.69
3864.00,79.62
3863.50,79.57
3863.00,79.52
3862.50,79.47
3862.00,79.40
3861.50,79.33
3861.00,79.27
3860.50,79.21
3860.00,79.14
3859.50,79.07
3859.00,78.99
3858.50,78.90
3858.00,78.82
3857.50,78.73
3857.00,78.64
3856.50,78.55
3856.00,78.49
3855.50,78.44
3855.00,78.35
3854.50,78.22
3854.00,78.11
3853.50,78.01
3853.00,77.92
3852.50,77.80
3852.00,77.68
3851.50,77.56
3851.00,77.47
3850.50,77.39
3850.00,77.28
3849.50,77.16
3849.00,77.02
3848.50,76.90
3848.00,76.78
3847.50,76.66
3847.00,76.53
3846.50,76.40
3846.00,76.27
3845.50,76.12
3845.00,75.98
3844.50,75.82
3844.00,75.66
3843.50,75.51
3843.00,75.37
3842.50,75.25
3842.00,75.13
3841.50,75.00
3841.00,74.88
3840.50,74.75
3840.00,74.63
3839.50,74.52
3839.00,74.41
3838.50,74.28
3838.00,74.13
3837.50,73.99
3837.00,73.89
3836.50,73.82
3836.00,73.74
3835.50,73.63
3835.00,73.49
3834.50,73.37
3834.00,73.27
3833.50,73.19
3833.00,73.12
3832.50,73.05
3832.00,72.98
3831.50,72.90
3831.00,72.82
3830.50,72.76
3830.00,72.71
3829.50,72.64
3829.00,72.58
3828.50,72.51
3828.00,72.45
3827.50,72.41
3827.00,72.37
3826.50,72.33
3826.00,72.29
3825.50,72.25
3825.00,72.22
3824.50,72.17
3824.00,72.12
3823.50,72.06
3823.00,72.00
3822.50,71.94
3822.00,71.94
3821.50,71.99
3821.00,71.98
3820.50,71.93
3820.00,71.88
3819.50,71.84
3819.00,71.79
3818.50,71.73
3818.00,71.66
3817.50,71.60
3817.00,71.55
3816.50,71.50
3816.00,71.42
3815.50,71.34
3815.00,71.29
3814.50,71.24
3814.00,71.19
3813.50,71.12
3813.00,71.04
3812.50,70.96
3812.00,70.87
3811.50,70.79
3811.00,70.71
3810.50,70.62
3810.00,70.53
3809.50,70.44
3809.00,70.36
3808.50,70.27
3808.00,70.20
3807.50,70.12
3807.00,70.01
3806.50,69.90
3806.00,69.82
3805.50,69.75
3805.00,69.66
3804.50,69.57
3804.00,69.46
3803.50,69.37
3803.00,69.28
3802.50,69.22
3802.00,69.13
3801.50,69.00
3801.00,68.87
3800.50,68.78
3800.00,68.72
3799.50,68.65
3799.00,68.55
3798.50,68.44
3798.00,68.32
3797.50,68.20
3797.00,68.06
3796.50,67.91
3796.00,67.77
3795.50,67.66
3795.00,67.54
3794.50,67.42
3794.00,67.27
3793.50,67.12
3793.00,66.95
3792.50,66.79
3792.00,66.61
3791.50,66.44
3791.00,66.25
3790.50,66.06
3790.00,65.86
3789.50,65.66
3789.00,65.45
3788.50,65.25
3788.00,65.05
3787.50,64.84
3787.00,64.63
3786.50,64.42
3786.00,64.21
3785.50,63.99
3785.00,63.76
3784.50,63.52
3784.00,63.31
3783.50,63.11
3783.00,62.92
3782.50,62.73
3782.00,62.53
3781.50,62.34
3781.00,62.15
3780.50,61.95
3780.00,61.75
3779.50,61.53
3779.00,61.34
3778.50,61.17
3778.00,61.02
3777.50,60.86
3777.00,60.69
3776.50,60.52
3776.00,60.36
3775.50,60.20
3775.00,60.04
3774.50,59.88
3774.00,59.73
3773.50,59.58
3773.00,59.44
3772.50,59.31
3772.00,59.18
3771.50,59.06
3771.00,58.94
3770.50,58.81
3770.00,58.66
3769.50,58.53
3769.00,58.43
3768.50,58.34
3768.00,58.25
3767.50,58.16
3767.00,58.07
3766.50,57.99
3766.00,57.92
3765.50,57.86
3765.00,57.81
3764.50,57.77
3764.00,57.73
3763.50,57.69
3763.00,57.66
3762.50,57.62
3762.00,57.57
3761.50,57.52
3761.00,57.49
3760.50,57.47
3760.00,57.49
3759.50,57.51
3759.00,57.51
3758.50,57.50
3758.00,57.50
3757.50,57.51
3757.00,57.53
3756.50,57.57
3756.00,57.60
3755.50,57.63
3755.00,57.64
3754.50,57.64
3754.00,57.65
3753.50,57.67
3753.00,57.74
3752.50,57.88
3752.00,58.01
3751.50,58.10
3751.00,58.17
3750.50,58.27
3750.00,58.38
3749.50,58.49
3749.00,58.58
3748.50,58.65
3748.00,58.72
3747.50,58.79
3747.00,58.84
3746.50,58.87
3746.00,58.88
3745.50,58.91
3745.00,59.09
3744.50,59.38
3744.00,59.58
3743.50,59.70
3743.00,59.78
3742.50,59.87
3742.00,59.97
3741.50,60.10
3741.00,60.22
3740.50,60.31
3740.00,60.37
3739.50,60.43
3739.00,60.48
3738.50,60.53
3738.00,60.58
3737.50,60.60
3737.00,60.60
3736.50,60.58
3736.00,60.56
3735.50,60.51
3735.00,60.44
3734.50,60.39
3734.00,60.36
3733.50,60.32
3733.00,60.26
3732.50,60.13
3732.00,59.97
3731.50,59.81
3731.00,59.67
3730.50,59.54
3730.00,59.39
3729.50,59.23
3729.00,59.06
3728.50,58.89
3728.00,58.71
3727.50,58.50
3727.00,58.26
3726.50,58.00
3726.00,57.75
3725.50,57.51
3725.00,57.29
3724.50,57.09
3724.00,56.89
3723.50,56.69
3723.00,56.44
3722.50,56.16
3722.00,55.90
3721.50,55.71
3721.00,55.55
3720.50,55.39
3720.00,55.21
3719.50,55.00
3719.00,54.78
3718.50,54.57
3718.00,54.39
3717.50,54.22
3717.00,54.03
3716.50,53.84
3716.00,53.63
3715.50,53.41
3715.00,53.19
3714.50,52.99
3714.00,52.79
3713.50,52.59
3713.00,52.33
3712.50,52.01
3712.00,51.69
3711.50,51.44
3711.00,51.25
3710.50,51.05
3710.00,50.80
3709.50,50.51
3709.00,50.26
3708.50,50.06
3708.00,49.89
3707.50,49.72
3707.00,49.54
3706.50,49.35
3706.00,49.16
3705.50,48.99
3705.00,48.84
3704.50,48.70
3704.00,48.56
3703.50,48.43
3703.00,48.29
3702.50,48.16
3702.00,48.05
3701.50,47.99
3701.00,47.96
3700.50,47.95
3700.00,47.95
3699.50,47.95
3699.00,47.96
3698.50,47.98
3698.00,48.02
3697.50,48.08
3697.00,48.15
3696.50,48.24
3696.00,48.33
3695.50,48.42
3695.00,48.52
3694.50,48.62
3694.00,48.72
3693.50,48.82
3693.00,48.92
3692.50,49.03
3692.00,49.19
3691.50,49.41
3691.00,49.62
3690.50,49.77
3690.00,49.90
3689.50,50.05
3689.00,50.25
3688.50,50.45
3688.00,50.58
3687.50,50.66
3687.00,50.74
3686.50,50.82
3686.00,50.91
3685.50,51.01
3685.00,51.11
3684.50,51.21
3684.00,51.29
3683.50,51.36
3683.00,51.42
3682.50,51.48
3682.00,51.52
3681.50,51.56
3681.00,51.59
3680.50,51.62
3680.00,51.65
3679.50,51.67
3679.00,51.68
3678.50,51.67
3678.00,51.66
3677.50,51.64
3677.00,51.60
3676.50,51.55
3676.00,51.51
3675.50,51.39
3675.00,51.27
3674.50,51.22
3674.00,51.19
3673.50,51.16
3673.00,51.10
3672.50,51.03
3672.00,50.94
3671.50,50.81
3671.00,50.64
3670.50,50.48
3670.00,50.33
3669.50,50.20
3669.00,50.07
3668.50,49.93
3668.00,49.81
3667.50,49.70
3667.00,49.58
3666.50,49.43
3666.00,49.26
3665.50,49.09
3665.00,48.92
3664.50,48.75
3664.00,48.58
3663.50,48.41
3663.00,48.24
3662.50,48.07
3662.00,47.91
3661.50,47.74
3661.00,47.56
3660.50,47.37
3660.00,47.18
3659.50,46.98
3659.00,46.80
3658.50,46.63
3658.00,46.47
3657.50,46.28
3657.00,46.04
3656.50,45.76
3656.00,45.52
3655.50,45.35
3655.00,45.22
3654.50,45.11
3654.00,44.97
3653.50,44.83
3653.00,44.69
3652.50,44.55
3652.00,44.41
3651.50,44.26
3651.00,44.11
3650.50,43.95
3650.00,43.79
3649.50,43.64
3649.00,43.51
3648.50,43.40
3648.00,43.30
3647.50,43.18
3647.00,43.09
3646.50,43.04
3646.00,43.02
3645.50,43.01
3645.00,42.98
3644.50,42.95
3644.00,42.92
3643.50,42.90
3643.00,42.88
3642.50,42.86
3642.00,42.85
3641.50,42.85
3641.00,42.85
3640.50,42.87
3640.00,42.89
3639.50,42.92
3639.00,42.97
3638.50,43.01
3638.00,43.07
3637.50,43.12
3637.00,43.18
3636.50,43.25
3636.00,43.31
3635.50,43.37
3635.00,43.44
3634.50,43.52
3634.00,43.61
3633.50,43.70
3633.00,43.79
3632.50,43.88
3632.00,43.96
3631.50,44.04
3631.00,44.12
3630.50,44.20
3630.00,44.28
3629.50,44.37
3629.00,44.46
3628.50,44.52
3628.00,44.60
3627.50,44.68
3627.00,44.76
3626.50,44.82
3626.00,44.88
3625.50,44.93
3625.00,44.98
3624.50,45.03
3624.00,45.07
3623.50,45.11
3623.00,45.14
3622.50,45.17
3622.00,45.19
3621.50,45.21
3621.00,45.22
3620.50,45.21
3620.00,45.20
3619.50,45.18
3619.00,45.17
3618.50,45.16
3618.00,45.14
3617.50,45.13
3617.00,45.14
3616.50,45.15
3616.00,45.16
3615.50,45.14
3615.00,45.10
3614.50,45.05
3614.00,45.02
3613.50,44.98
3613.00,44.92
3612.50,44.85
3612.00,44.80
3611.50,44.79
3611.00,44.80
3610.50,44.79
3610.00,44.73
3609.50,44.64
3609.00,44.54
3608.50,44.47
3608.00,44.42
3607.50,44.36
3607.00,44.29
3606.50,44.24
3606.00,44.21
3605.50,44.18
3605.00,44.15
3604.50,44.09
3604.00,44.04
3603.50,43.98
3603.00,43.91
3602.50,43.85
3602.00,43.79
3601.50,43.73
3601.00,43.67
3600.50,43.61
3600.00,43.55
3599.50,43.50
3599.00,43.43
3598.50,43.35
3598.00,43.27
3597.50,43.21
3597.00,43.16
3596.50,43.10
3596.00,43.03
3595.50,42.96
3595.00,42.91
3594.50,42.88
3594.00,42.86
3593.50,42.82
3593.00,42.78
3592.50,42.75
3592.00,42.73
3591.50,42.72
3591.00,42.71
3590.50,42.70
3590.00,42.69
3589.50,42.66
3589.00,42.61
3588.50,42.57
3588.00,42.54
3587.50,42.52
3587.00,42.49
3586.50,42.46
3586.00,42.45
3585.50,42.46
3585.00,42.49
3584.50,42.52
3584.00,42.56
3583.50,42.62
3583.00,42.70
3582.50,42.78
3582.00,42.86
3581.50,42.94
3581.00,43.01
3580.50,43.07
3580.00,43.13
3579.50,43.19
3579.00,43.25
3578.50,43.31
3578.00,43.37
3577.50,43.43
3577.00,43.48
3576.50,43.52
3576.00,43.57
3575.50,43.62
3575.00,43.68
3574.50,43.72
3574.00,43.77
3573.50,43.81
3573.00,43.86
3572.50,43.91
3572.00,43.97
3571.50,44.02
3571.00,44.08
3570.50,44.13
3570.00,44.19
3569.50,44.24
3569.00,44.28
3568.50,44.30
3568.00,44.33
3567.50,44.37
3567.00,44.41
3566.50,44.44
3566.00,44.47
3565.50,44.52
3565.00,44.59
3564.50,44.66
3564.00,44.71
3563.50,44.76
3563.00,44.80
3562.50,44.85
3562.00,44.89
3561.50,44.92
3561.00,44.94
3560.50,44.96
3560.00,44.97
3559.50,44.99
3559.00,45.02
3558.50,45.06
3558.00,45.09
3557.50,45.11
3557.00,45.12
3556.50,45.14
3556.00,45.15
3555.50,45.17
3555.00,45.18
3554.50,45.20
3554.00,45.21
3553.50,45.22
3553.00,45.23
3552.50,45.22
3552.00,45.21
3551.50,45.21
3551.00,45.21
3550.50,45.21
3550.00,45.22
3549.50,45.23
3549.00,45.24
3548.50,45.25
3548.00,45.25
3547.50,45.24
3547.00,45.23
3546.50,45.22
3546.00,45.22
3545.50,45.20
3545.00,45.18
3544.50,45.17
3544.00,45.16
3543.50,45.16
3543.00,45.14
3542.50,45.13
3542.00,45.11
3541.50,45.09
3541.00,45.08
3540.50,45.07
3540.00,45.05
3539.50,45.04
3539.00,45.03
3538.50,45.03
3538.00,45.04
3537.50,45.04
3537.00,45.02
3536.50,44.99
3536.00,44.96
3535.50,44.94
3535.00,44.93
3534.50,44.92
3534.00,44.92
3533.50,44.91
3533.00,44.91
3532.50,44.90
3532.00,44.90
3531.50,44.89
3531.00,44.88
3530.50,44.88
3530.00,44.88
3529.50,44.88
3529.00,44.87
3528.50,44.86
3528.00,44.85
3527.50,44.84
3527.00,44.84
3526.50,44.83
3526.00,44.84
3525.50,44.85
3525.00,44.87
3524.50,44.88
3524.00,44.87
3523.50,44.85
3523.00,44.83
3522.50,44.80
3522.00,44.80
3521.50,44.80
3521.00,44.81
3520.50,44.82
3520.00,44.83
3519.50,44.83
3519.00,44.84
3518.50,44.84
3518.00,44.85
3517.50,44.85
3517.00,44.86
3516.50,44.87
3516.00,44.88
3515.50,44.90
3515.00,44.93
3514.50,44.94
3514.00,44.96
3513.50,44.96
3513.00,44.97
3512.50,44.98
3512.00,44.99
3511.50,45.00
3511.00,45.02
3510.50,45.03
3510.00,45.03
3509.50,45.03
3509.00,45.03
3508.50,45.04
3508.00,45.06
3507.50,45.09
3507.00,45.12
3506.50,45.14
3506.00,45.16
3505.50,45.19
3505.00,45.21
3504.50,45.23
3504.00,45.25
3503.50,45.26
3503.00,45.26
3502.50,45.26
3502.00,45.26
3501.50,45.26
3501.00,45.27
3500.50,45.29
3500.00,45.31
3499.50,45.33
3499.00,45.35
3498.50,45.38
3498.00,45.40
3497.50,45.41
3497.00,45.42
3496.50,45.42
3496.00,45.43
3495.50,45.44
3495.00,45.46
3494.50,45.47
3494.00,45.48
3493.50,45.50
3493.00,45.51
3492.50,45.53
3492.00,45.54
3491.50,45.56
3491.00,45.57
3490.50,45.59
3490.00,45.61
3489.50,45.64
3489.00,45.66
3488.50,45.68
3488.00,45.69
3487.50,45.71
3487.00,45.73
3486.50,45.75
3486.00,45.76
3485.50,45.77
3485.00,45.78
3484.50,45.80
3484.00,45.83
3483.50,45.85
3483.00,45.87
3482.50,45.89
3482.00,45.90
3481.50,45.93
3481.00,45.95
3480.50,45.98
3480.00,46.00
3479.50,46.01
3479.00,46.03
3478.50,46.04
3478.00,46.06
3477.50,46.08
3477.00,46.10
3476.50,46.13
3476.00,46.15
3475.50,46.17
3475.00,46.19
3474.50,46.20
3474.00,46.22
3473.50,46.24
3473.00,46.27
3472.50,46.30
3472.00,46.33
3471.50,46.35
3471.00,46.38
3470.50,46.41
3470.00,46.44
3469.50,46.46
3469.00,46.49
3468.50,46.52
3468.00,46.54
3467.50,46.56
3467.00,46.58
3466.50,46.59
3466.00,46.60
3465.50,46.62
3465.00,46.65
3464.50,46.67
3464.00,46.69
3463.50,46.72
3463.00,46.74
3462.50,46.76
3462.00,46.78
3461.50,46.81
3461.00,46.84
3460.50,46.87
3460.00,46.89
3459.50,46.91
3459.00,46.93
3458.50,46.95
3458.00,46.97
3457.50,46.99
3457.00,47.02
3456.50,47.05
3456.00,47.07
3455.50,47.10
3455.00,47.13
3454.50,47.16
3454.00,47.19
3453.50,47.22
3453.00,47.24
3452.50,47.27
3452.00,47.31
3451.50,47.34
3451.00,47.37
3450.50,47.40
3450.00,47.44
3449.50,47.48
3449.00,47.53
3448.50,47.57
3448.00,47.60
3447.50,47.61
3447.00,47.62
3446.50,47.63
3446.00,47.66
3445.50,47.70
3445.00,47.74
3444.50,47.78
3444.00,47.82
3443.50,47.85
3443.00,47.88
3442.50,47.90
3442.00,47.92
3441.50,47.96
3441.00,47.99
3440.50,48.03
3440.00,48.07
3439.50,48.10
3439.00,48.14
3438.50,48.18
3438.00,48.21
3437.50,48.25
3437.00,48.28
3436.50,48.31
3436.00,48.34
3435.50,48.37
3435.00,48.40
3434.50,48.42
3434.00,48.45
3433.50,48.47
3433.00,48.50
3432.50,48.53
3432.00,48.56
3431.50,48.59
3431.00,48.62
3430.50,48.65
3430.00,48.67
3429.50,48.70
3429.00,48.73
3428.50,48.75
3428.00,48.77
3427.50,48.79
3427.00,48.82
3426.50,48.84
3426.00,48.87
3425.50,48.89
3425.00,48.92
3424.50,48.95
3424.00,48.98
3423.50,49.01
3423.00,49.04
3422.50,49.08
3422.00,49.11
3421.50,49.14
3421.00,49.17
3420.50,49.18
3420.00,49.20
3419.50,49.22
3419.00,49.25
3418.50,49.28
3418.00,49.31
3417.50,49.34
3417.00,49.37
3416.50,49.40
3416.00,49.43
3415.50,49.46
3415.00,49.50
3414.50,49.54
3414.00,49.57
3413.50,49.60
3413.00,49.63
3412.50,49.65
3412.00,49.68
3411.50,49.71
3411.00,49.74
3410.50,49.78
3410.00,49.81
3409.50,49.84
3409.00,49.87
3408.50,49.90
3408.00,49.92
3407.50,49.95
3407.00,49.98
3406.50,50.01
3406.00,50.04
3405.50,50.07
3405.00,50.11
3404.50,50.14
3404.00,50.18
3403.50,50.21
3403.00,50.25
3402.50,50.29
3402.00,50.32
3401.50,50.36
3401.00,50.39
3400.50,50.42
3400.00,50.45
3399.50,50.48
3399.00,50.51
3398.50,50.54
3398.00,50.56
3397.50,50.59
3397.00,50.62
3396.50,50.65
3396.00,50.68
3395.50,50.72
3395.00,50.76
3394.50,50.80
3394.00,50.83
3393.50,50.87
3393.00,50.90
3392.50,50.92
3392.00,50.95
3391.50,50.98
3391.00,51.01
3390.50,51.04
3390.00,51.07
3389.50,51.09
3389.00,51.12
3388.50,51.15
3388.00,51.18
3387.50,51.22
3387.00,51.25
3386.50,51.29
3386.00,51.32
3385.50,51.35
3385.00,51.38
3384.50,51.41
3384.00,51.44
3383.50,51.48
3383.00,51.51
3382.50,51.55
3382.00,51.59
3381.50,51.63
3381.00,51.66
3380.50,51.70
3380.00,51.73
3379.50,51.75
3379.00,51.78
3378.50,51.81
3378.00,51.85
3377.50,51.88
3377.00,51.91
3376.50,51.94
3376.00,51.97
3375.50,52.00
3375.00,52.03
3374.50,52.06
3374.00,52.09
3373.50,52.12
3373.00,52.16
3372.50,52.19
3372.00,52.23
3371.50,52.26
3371.00,52.30
3370.50,52.34
3370.00,52.37
3369.50,52.40
3369.00,52.43
3368.50,52.46
3368.00,52.49
3367.50,52.52
3367.00,52.55
3366.50,52.57
3366.00,52.59
3365.50,52.62
3365.00,52.64
3364.50,52.66
3364.00,52.69
3363.50,52.72
3363.00,52.75
3362.50,52.78
3362.00,52.81
3361.50,52.85
3361.00,52.88
3360.50,52.91
3360.00,52.94
3359.50,52.96
3359.00,52.99
3358.50,53.02
3358.00,53.05
3357.50,53.08
3357.00,53.11
3356.50,53.14
3356.00,53.17
3355.50,53.20
3355.00,53.24
3354.50,53.27
3354.00,53.31
3353.50,53.34
3353.00,53.39
3352.50,53.43
3352.00,53.47
3351.50,53.50
3351.00,53.54
3350.50,53.57
3350.00,53.61
3349.50,53.64
3349.00,53.67
3348.50,53.70
3348.00,53.74
3347.50,53.77
3347.00,53.81
3346.50,53.85
3346.00,53.89
3345.50,53.93
3345.00,53.98
3344.50,54.02
3344.00,54.06
3343.50,54.10
3343.00,54.14
3342.50,54.18
3342.00,54.22
3341.50,54.26
3341.00,54.31
3340.50,54.35
3340.00,54.40
3339.50,54.44
3339.00,54.48
3338.50,54.52
3338.00,54.56
3337.50,54.60
3337.00,54.64
3336.50,54.67
3336.00,54.70
3335.50,54.74
3335.00,54.78
3334.50,54.82
3334.00,54.85
3333.50,54.90
3333.00,54.94
3332.50,54.98
3332.00,55.02
3331.50,55.06
3331.00,55.10
3330.50,55.13
3330.00,55.17
3329.50,55.21
3329.00,55.25
3328.50,55.29
3328.00,55.34
3327.50,55.38
3327.00,55.42
3326.50,55.46
3326.00,55.50
3325.50,55.54
3325.00,55.57
3324.50,55.60
3324.00,55.64
3323.50,55.67
3323.00,55.71
3322.50,55.75
3322.00,55.79
3321.50,55.84
3321.00,55.88
3320.50,55.92
3320.00,55.96
3319.50,56.00
3319.00,56.04
3318.50,56.08
3318.00,56.12
3317.50,56.17
3317.00,56.21
3316.50,56.26
3316.00,56.31
3315.50,56.36
3315.00,56.41
3314.50,56.46
3314.00,56.50
3313.50,56.54
3313.00,56.59
3312.50,56.63
3312.00,56.68
3311.50,56.72
3311.00,56.77
3310.50,56.82
3310.00,56.87
3309.50,56.91
3309.00,56.95
3308.50,56.99
3308.00,57.03
3307.50,57.07
3307.00,57.11
3306.50,57.15
3306.00,57.19
3305.50,57.23
3305.00,57.26
3304.50,57.30
3304.00,57.33
3303.50,57.36
3303.00,57.39
3302.50,57.43
3302.00,57.46
3301.50,57.50
3301.00,57.53
3300.50,57.57
3300.00,57.60
3299.50,57.63
3299.00,57.67
3298.50,57.71
3298.00,57.74
3297.50,57.78
3297.00,57.81
3296.50,57.84
3296.00,57.87
3295.50,57.90
3295.00,57.94
3294.50,57.97
3294.00,58.00
3293.50,58.04
3293.00,58.07
3292.50,58.10
3292.00,58.13
3291.50,58.16
3291.00,58.18
3290.50,58.21
3290.00,58.23
3289.50,58.26
3289.00,58.29
3288.50,58.32
3288.00,58.34
3287.50,58.37
3287.00,58.40
3286.50,58.43
3286.00,58.46
3285.50,58.49
3285.00,58.52
3284.50,58.54
3284.00,58.57
3283.50,58.60
3283.00,58.62
3282.50,58.65
3282.00,58.67
3281.50,58.70
3281.00,58.73
3280.50,58.76
3280.00,58.78
3279.50,58.80
3279.00,58.82
3278.50,58.85
3278.00,58.88
3277.50,58.91
3277.00,58.93
3276.50,58.96
3276.00,58.98
3275.50,59.00
3275.00,59.02
3274.50,59.04
3274.00,59.06
3273.50,59.08
3273.00,59.10
3272.50,59.12
3272.00,59.14
3271.50,59.15
3271.00,59.17
3270.50,59.18
3270.00,59.20
3269.50,59.21
3269.00,59.23
3268.50,59.24
3268.00,59.26
3267.50,59.27
3267.00,59.29
3266.50,59.30
3266.00,59.32
3265.50,59.33
3265.00,59.35
3264.50,59.36
3264.00,59.38
3263.50,59.39
3263.00,59.41
3262.50,59.42
3262.00,59.44
3261.50,59.45
3261.00,59.46
3260.50,59.48
3260.00,59.49
3259.50,59.51
3259.00,59.52
3258.50,59.53
3258.00,59.55
3257.50,59.56
3257.00,59.58
3256.50,59.59
3256.00,59.61
3255.50,59.62
3255.00,59.63
3254.50,59.64
3254.00,59.64
3253.50,59.65
3253.00,59.66
3252.50,59.68
3252.00,59.68
3251.50,59.69
3251.00,59.70
3250.50,59.71
3250.00,59.73
3249.50,59.74
3249.00,59.75
3248.50,59.76
3248.00,59.77
3247.50,59.78
3247.00,59.79
3246.50,59.80
3246.00,59.81
3245.50,59.81
3245.00,59.82
3244.50,59.81
3244.00,59.81
3243.50,59.82
3243.00,59.82
3242.50,59.83
3242.00,59.84
3241.50,59.84
3241.00,59.85
3240.50,59.85
3240.00,59.85
3239.50,59.86
3239.00,59.86
3238.50,59.86
3238.00,59.87
3237.50,59.87
3237.00,59.87
3236.50,59.87
3236.00,59.88
3235.50,59.88
3235.00,59.88
3234.50,59.88
3234.00,59.88
3233.50,59.89
3233.00,59.88
3232.50,59.88
3232.00,59.88
3231.50,59.88
3231.00,59.88
3230.50,59.88
3230.00,59.88
3229.50,59.88
3229.00,59.88
3228.50,59.88
3228.00,59.88
3227.50,59.88
3227.00,59.88
3226.50,59.88
3226.00,59.88
3225.50,59.88
3225.00,59.88
3224.50,59.89
3224.00,59.89
3223.50,59.90
3223.00,59.90
3222.50,59.91
3222.00,59.91
3221.50,59.91
3221.00,59.92
3220.50,59.93
3220.00,59.93
3219.50,59.94
3219.00,59.94
3218.50,59.94
3218.00,59.94
3217.50,59.95
3217.00,59.95
3216.50,59.96
3216.00,59.96
3215.50,59.97
3215.00,59.97
3214.50,59.97
3214.00,59.97
3213.50,59.96
3213.00,59.96
3212.50,59.96
3212.00,59.95
3211.50,59.95
3211.00,59.96
3210.50,59.95
3210.00,59.95
3209.50,59.94
3209.00,59.94
3208.50,59.93
3208.00,59.92
3207.50,59.91
3207.00,59.90
3206.50,59.89
3206.00,59.88
3205.50,59.87
3205.00,59.86
3204.50,59.86
3204.00,59.85
3203.50,59.84
3203.00,59.82
3202.50,59.81
3202.00,59.80
3201.50,59.78
3201.00,59.77
3200.50,59.76
3200.00,59.74
3199.50,59.73
3199.00,59.72
3198.50,59.71
3198.00,59.69
3197.50,59.66
3197.00,59.64
3196.50,59.62
3196.00,59.60
3195.50,59.58
3195.00,59.55
3194.50,59.53
3194.00,59.50
3193.50,59.47
3193.00,59.43
3192.50,59.40
3192.00,59.36
3191.50,59.32
3191.00,59.29
3190.50,59.25
3190.00,59.21
3189.50,59.16
3189.00,59.12
3188.50,59.07
3188.00,59.04
3187.50,59.00
3187.00,58.98
3186.50,58.96
3186.00,58.95
3185.50,58.94
3185.00,58.95
3184.50,58.96
3184.00,58.97
3183.50,58.99
3183.00,59.02
3182.50,59.05
3182.00,59.09
3181.50,59.13
3181.00,59.16
3180.50,59.20
3180.00,59.22
3179.50,59.25
3179.00,59.27
3178.50,59.29
3178.00,59.30
3177.50,59.31
3177.00,59.32
3176.50,59.32
3176.00,59.33
3175.50,59.32
3175.00,59.32
3174.50,59.31
3174.00,59.30
3173.50,59.29
3173.00,59.27
3172.50,59.26
3172.00,59.24
3171.50,59.22
3171.00,59.20
3170.50,59.18
3170.00,59.15
3169.50,59.13
3169.00,59.10
3168.50,59.07
3168.00,59.04
3167.50,59.01
3167.00,58.97
3166.50,58.93
3166.00,58.90
3165.50,58.86
3165.00,58.82
3164.50,58.78
3164.00,58.73
3163.50,58.69
3163.00,58.64
3162.50,58.59
3162.00,58.54
3161.50,58.49
3161.00,58.44
3160.50,58.38
3160.00,58.32
3159.50,58.27
3159.00,58.21
3158.50,58.15
3158.00,58.09
3157.50,58.02
3157.00,57.96
3156.50,57.89
3156.00,57.83
3155.50,57.76
3155.00,57.69
3154.50,57.63
3154.00,57.55
3153.50,57.48
3153.00,57.40
3152.50,57.32
3152.00,57.24
3151.50,57.15
3151.00,57.06
3150.50,56.98
3150.00,56.88
3149.50,56.79
3149.00,56.70
3148.50,56.61
3148.00,56.51
3147.50,56.42
3147.00,56.32
3146.50,56.22
3146.00,56.12
3145.50,56.02
3145.00,55.91
3144.50,55.80
3144.00,55.69
3143.50,55.58
3143.00,55.47
3142.50,55.35
3142.00,55.23
3141.50,55.11
3141.00,54.99
3140.50,54.87
3140.00,54.74
3139.50,54.61
3139.00,54.48
3138.50,54.34
3138.00,54.20
3137.50,54.05
3137.00,53.91
3136.50,53.76
3136.00,53.62
3135.50,53.47
3135.00,53.32
3134.50,53.17
3134.00,53.02
3133.50,52.87
3133.00,52.71
3132.50,52.55
3132.00,52.40
3131.50,52.24
3131.00,52.09
3130.50,51.93
3130.00,51.77
3129.50,51.61
3129.00,51.45
3128.50,51.29
3128.00,51.13
3127.50,50.98
3127.00,50.82
3126.50,50.67
3126.00,50.51
3125.50,50.36
3125.00,50.22
3124.50,50.08
3124.00,49.94
3123.50,49.80
3123.00,49.67
3122.50,49.54
3122.00,49.41
3121.50,49.28
3121.00,49.16
3120.50,49.04
3120.00,48.93
3119.50,48.81
3119.00,48.71
3118.50,48.60
3118.00,48.49
3117.50,48.40
3117.00,48.31
3116.50,48.22
3116.00,48.13
3115.50,48.04
3115.00,47.96
3114.50,47.88
3114.00,47.80
3113.50,47.73
3113.00,47.67
3112.50,47.61
3112.00,47.55
3111.50,47.50
3111.00,47.46
3110.50,47.42
3110.00,47.39
3109.50,47.35
3109.00,47.32
3108.50,47.29
3108.00,47.26
3107.50,47.24
3107.00,47.21
3106.50,47.19
3106.00,47.17
3105.50,47.16
3105.00,47.15
3104.50,47.14
3104.00,47.14
3103.50,47.13
3103.00,47.13
3102.50,47.14
3102.00,47.14
3101.50,47.15
3101.00,47.16
3100.50,47.16
3100.00,47.16
3099.50,47.15
3099.00,47.15
3098.50,47.14
3098.00,47.14
3097.50,47.13
3097.00,47.13
3096.50,47.13
3096.00,47.13
3095.50,47.13
3095.00,47.12
3094.50,47.12
3094.00,47.11
3093.50,47.10
3093.00,47.10
3092.50,47.09
3092.00,47.09
3091.50,47.08
3091.00,47.06
3090.50,47.04
3090.00,47.02
3089.50,46.99
3089.00,46.96
3088.50,46.93
3088.00,46.91
3087.50,46.88
3087.00,46.85
3086.50,46.81
3086.00,46.77
3085.50,46.73
3085.00,46.69
3084.50,46.65
3084.00,46.60
3083.50,46.54
3083.00,46.49
3082.50,46.43
3082.00,46.37
3081.50,46.32
3081.00,46.26
3080.50,46.19
3080.00,46.12
3079.50,46.05
3079.00,45.98
3078.50,45.90
3078.00,45.82
3077.50,45.73
3077.00,45.64
3076.50,45.54
3076.00,45.44
3075.50,45.34
3075.00,45.24
3074.50,45.13
3074.00,45.02
3073.50,44.91
3073.00,44.79
3072.50,44.66
3072.00,44.53
3071.50,44.40
3071.00,44.25
3070.50,44.10
3070.00,43.95
3069.50,43.79
3069.00,43.62
3068.50,43.44
3068.00,43.25
3067.50,43.05
3067.00,42.83
3066.50,42.60
3066.00,42.36
3065.50,42.11
3065.00,41.84
3064.50,41.56
3064.00,41.27
3063.50,40.96
3063.00,40.63
3062.50,40.30
3062.00,39.95
3061.50,39.58
3061.00,39.21
3060.50,38.82
3060.00,38.43
3059.50,38.03
3059.00,37.63
3058.50,37.24
3058.00,36.86
3057.50,36.49
3057.00,36.13
3056.50,35.80
3056.00,35.49
3055.50,35.23
3055.00,35.01
3054.50,34.84
3054.00,34.71
3053.50,34.64
3053.00,34.63
3052.50,34.68
3052.00,34.80
3051.50,34.99
3051.00,35.23
3050.50,35.52
3050.00,35.86
3049.50,36.24
3049.00,36.65
3048.50,37.08
3048.00,37.51
3047.50,37.93
3047.00,38.35
3046.50,38.73
3046.00,39.09
3045.50,39.42
3045.00,39.72
3044.50,39.99
3044.00,40.23
3043.50,40.44
3043.00,40.63
3042.50,40.80
3042.00,40.95
3041.50,41.07
3041.00,41.18
3040.50,41.28
3040.00,41.36
3039.50,41.43
3039.00,41.49
3038.50,41.54
3038.00,41.58
3037.50,41.62
3037.00,41.65
3036.50,41.68
3036.00,41.70
3035.50,41.71
3035.00,41.71
3034.50,41.70
3034.00,41.68
3033.50,41.65
3033.00,41.61
3032.50,41.56
3032.00,41.50
3031.50,41.44
3031.00,41.36
3030.50,41.28
3030.00,41.18
3029.50,41.08
3029.00,40.96
3028.50,40.84
3028.00,40.70
3027.50,40.56
3027.00,40.41
3026.50,40.24
3026.00,40.06
3025.50,39.87
3025.00,39.66
3024.50,39.43
3024.00,39.19
3023.50,38.93
3023.00,38.67
3022.50,38.39
3022.00,38.10
3021.50,37.81
3021.00,37.52
3020.50,37.22
3020.00,36.91
3019.50,36.60
3019.00,36.30
3018.50,36.00
3018.00,35.71
3017.50,35.43
3017.00,35.17
3016.50,34.92
3016.00,34.69
3015.50,34.47
3015.00,34.26
3014.50,34.06
3014.00,33.88
3013.50,33.70
3013.00,33.52
3012.50,33.34
3012.00,33.16
3011.50,32.97
3011.00,32.77
3010.50,32.56
3010.00,32.32
3009.50,32.08
3009.00,31.81
3008.50,31.53
3008.00,31.23
3007.50,30.91
3007.00,30.57
3006.50,30.21
3006.00,29.83
3005.50,29.44
3005.00,29.03
3004.50,28.60
3004.00,28.15
3003.50,27.68
3003.00,27.20
3002.50,26.70
3002.00,26.18
3001.50,25.65
3001.00,25.11
3000.50,24.55
3000.00,23.97
2999.50,23.39
2999.00,22.80
2998.50,22.18
2998.00,21.55
2997.50,20.91
2997.00,20.25
2996.50,19.57
2996.00,18.89
2995.50,18.20
2995.00,17.50
2994.50,16.79
2994.00,16.08
2993.50,15.36
2993.00,14.64
2992.50,13.91
2992.00,13.17
2991.50,12.44
2991.00,11.70
2990.50,10.97
2990.00,10.24
2989.50,9.53
2989.00,8.83
2988.50,8.13
2988.00,7.45
2987.50,6.80
2987.00,6.16
2986.50,5.54
2986.00,4.96
2985.50,4.40
2985.00,3.87
2984.50,3.38
2984.00,2.91
2983.50,2.50
2983.00,2.12
2982.50,1.77
2982.00,1.46
2981.50,1.19
2981.00,0.95
2980.50,0.74
2980.00,0.56
2979.50,0.42
2979.00,0.31
2978.50,0.21
2978.00,0.13
2977.50,0.08
2977.00,0.04
2976.50,0.01
2976.00,0.00
2975.50,-0.00
2975.00,-0.01
2974.50,0.00
2974.00,0.01
2973.50,0.02
2973.00,0.03
2972.50,0.04
2972.00,0.05
2971.50,0.06
2971.00,0.06
2970.50,0.06
2970.00,0.07
2969.50,0.07
2969.00,0.07
2968.50,0.07
2968.00,0.07
2967.50,0.07
2967.00,0.07
2966.50,0.07
2966.00,0.07
2965.50,0.07
2965.00,0.07
2964.50,0.07
2964.00,0.06
2963.50,0.05
2963.00,0.05
2962.50,0.05
2962.00,0.06
2961.50,0.07
2961.00,0.07
2960.50,0.08
2960.00,0.08
2959.50,0.08
2959.00,0.07
2958.50,0.08
2958.00,0.08
2957.50,0.08
2957.00,0.07
2956.50,0.08
2956.00,0.08
2955.50,0.07
2955.00,0.07
2954.50,0.06
2954.00,0.05
2953.50,0.03
2953.00,0.02
2952.50,0.02
2952.00,0.02
2951.50,0.02
2951.00,0.03
2950.50,0.04
2950.00,0.06
2949.50,0.09
2949.00,0.14
2948.50,0.20
2948.00,0.28
2947.50,0.38
2947.00,0.49
2946.50,0.62
2946.00,0.77
2945.50,0.95
2945.00,1.15
2944.50,1.37
2944.00,1.61
2943.50,1.88
2943.00,2.16
2942.50,2.46
2942.00,2.78
2941.50,3.12
2941.00,3.48
2940.50,3.85
2940.00,4.24
2939.50,4.64
2939.00,5.06
2938.50,5.48
2938.00,5.90
2937.50,6.34
2937.00,6.78
2936.50,7.22
2936.00,7.65
2935.50,8.09
2935.00,8.53
2934.50,8.95
2934.00,9.37
2933.50,9.79
2933.00,10.20
2932.50,10.59
2932.00,10.98
2931.50,11.35
2931.00,11.71
2930.50,12.05
2930.00,12.38
2929.50,12.68
2929.00,12.96
2928.50,13.22
2928.00,13.45
2927.50,13.66
2927.00,13.85
2926.50,14.02
2926.00,14.15
2925.50,14.26
2925.00,14.35
2924.50,14.40
2924.00,14.42
2923.50,14.41
2923.00,14.36
2922.50,14.29
2922.00,14.17
2921.50,14.03
2921.00,13.86
2920.50,13.66
2920.00,13.42
2919.50,13.14
2919.00,12.84
2918.50,12.50
2918.00,12.12
2917.50,11.71
2917.00,11.28
2916.50,10.81
2916.00,10.32
2915.50,9.80
2915.00,9.27
2914.50,8.73
2914.00,8.18
2913.50,7.63
2913.00,7.08
2912.50,6.53
2912.00,6.01
2911.50,5.51
2911.00,5.04
2910.50,4.60
2910.00,4.19
2909.50,3.83
2909.00,3.50
2908.50,3.22
2908.00,2.97
2907.50,2.77
2907.00,2.61
2906.50,2.48
2906.00,2.39
2905.50,2.34
2905.00,2.33
2904.50,2.34
2904.00,2.39
2903.50,2.47
2903.00,2.59
2902.50,2.74
2902.00,2.93
2901.50,3.16
2901.00,3.43
2900.50,3.73
2900.00,4.07
2899.50,4.46
2899.00,4.89
2898.50,5.36
2898.00,5.87
2897.50,6.43
2897.00,7.02
2896.50,7.64
2896.00,8.28
2895.50,8.96
2895.00,9.66
2894.50,10.37
2894.00,11.10
2893.50,11.85
2893.00,12.60
2892.50,13.35
2892.00,14.10
2891.50,14.85
2891.00,15.60
2890.50,16.34
2890.00,17.06
2889.50,17.78
2889.00,18.49
2888.50,19.19
2888.00,19.87
2887.50,20.54
2887.00,21.19
2886.50,21.83
2886.00,22.46
2885.50,23.07
2885.00,23.67
2884.50,24.26
2884.00,24.83
2883.50,25.39
2883.00,25.94
2882.50,26.48
2882.00,27.00
2881.50,27.52
2881.00,28.02
2880.50,28.51
2880.00,28.99
2879.50,29.47
2879.00,29.94
2878.50,30.40
2878.00,30.85
2877.50,31.30
2877.00,31.74
2876.50,32.18
2876.00,32.61
2875.50,33.04
2875.00,33.47
2874.50,33.89
2874.00,34.30
2873.50,34.71
2873.00,35.13
2872.50,35.53
2872.00,35.93
2871.50,36.32
2871.00,36.71
2870.50,37.09
2870.00,37.46
2869.50,37.82
2869.00,38.17
2868.50,38.50
2868.00,38.83
2867.50,39.14
2867.00,39.45
2866.50,39.74
2866.00,40.02
2865.50,40.30
2865.00,40.56
2864.50,40.80
2864.00,41.04
2863.50,41.26
2863.00,41.47
2862.50,41.68
2862.00,41.87
2861.50,42.05
2861.00,42.22
2860.50,42.38
2860.00,42.53
2859.50,42.67
2859.00,42.81
2858.50,42.93
2858.00,43.05
2857.50,43.17
2857.00,43.28
2856.50,43.38
2856.00,43.48
2855.50,43.57
2855.00,43.67
2854.50,43.75
2854.00,43.83
2853.50,43.91
2853.00,43.99
2852.50,44.06
2852.00,44.12
2851.50,44.19
2851.00,44.26
2850.50,44.32
2850.00,44.38
2849.50,44.44
2849.00,44.50
2848.50,44.56
2848.00,44.62
2847.50,44.68
2847.00,44.74
2846.50,44.80
2846.00,44.85
2845.50,44.91
2845.00,44.96
2844.50,45.01
2844.00,45.06
2843.50,45.11
2843.00,45.16
2842.50,45.21
2842.00,45.26
2841.50,45.32
2841.00,45.38
2840.50,45.45
2840.00,45.51
2839.50,45.58
2839.00,45.66
2838.50,45.75
2838.00,45.84
2837.50,45.95
2837.00,46.06
2836.50,46.17
2836.00,46.28
2835.50,46.40
2835.00,46.53
2834.50,46.65
2834.00,46.77
2833.50,46.90
2833.00,47.02
2832.50,47.14
2832.00,47.26
2831.50,47.38
2831.00,47.49
2830.50,47.60
2830.00,47.70
2829.50,47.79
2829.00,47.88
2828.50,47.95
2828.00,48.02
2827.50,48.08
2827.00,48.13
2826.50,48.17
2826.00,48.20
2825.50,48.22
2825.00,48.23
2824.50,48.23
2824.00,48.22
2823.50,48.20
2823.00,48.18
2822.50,48.15
2822.00,48.11
2821.50,48.07
2821.00,48.02
2820.50,47.96
2820.00,47.90
2819.50,47.83
2819.00,47.77
2818.50,47.70
2818.00,47.63
2817.50,47.56
2817.00,47.50
2816.50,47.43
2816.00,47.37
2815.50,47.31
2815.00,47.25
2814.50,47.20
2814.00,47.16
2813.50,47.12
2813.00,47.09
2812.50,47.06
2812.00,47.03
2811.50,47.02
2811.00,47.01
2810.50,47.01
2810.00,47.01
2809.50,47.02
2809.00,47.04
2808.50,47.06
2808.00,47.09
2807.50,47.12
2807.00,47.15
2806.50,47.18
2806.00,47.22
2805.50,47.25
2805.00,47.30
2804.50,47.34
2804.00,47.38
2803.50,47.42
2803.00,47.47
2802.50,47.52
2802.00,47.57
2801.50,47.62
2801.00,47.68
2800.50,47.73
2800.00,47.79
2799.50,47.85
2799.00,47.92
2798.50,48.00
2798.00,48.08
2797.50,48.18
2797.00,48.28
2796.50,48.40
2796.00,48.53
2795.50,48.68
2795.00,48.85
2794.50,49.03
2794.00,49.24
2793.50,49.47
2793.00,49.72
2792.50,50.00
2792.00,50.30
2791.50,50.64
2791.00,51.00
2790.50,51.39
2790.00,51.81
2789.50,52.25
2789.00,52.73
2788.50,53.22
2788.00,53.74
2787.50,54.28
2787.00,54.83
2786.50,55.39
2786.00,55.96
2785.50,56.54
2785.00,57.12
2784.50,57.70
2784.00,58.27
2783.50,58.85
2783.00,59.41
2782.50,59.97
2782.00,60.52
2781.50,61.06
2781.00,61.59
2780.50,62.10
2780.00,62.61
2779.50,63.10
2779.00,63.57
2778.50,64.04
2778.00,64.49
2777.50,64.93
2777.00,65.35
2776.50,65.77
2776.00,66.16
2775.50,66.55
2775.00,66.93
2774.50,67.30
2774.00,67.66
2773.50,68.01
2773.00,68.35
2772.50,68.68
2772.00,69.00
2771.50,69.31
2771.00,69.62
2770.50,69.91
2770.00,70.20
2769.50,70.47
2769.00,70.74
2768.50,71.00
2768.00,71.25
2767.50,71.50
2767.00,71.74
2766.50,71.97
2766.00,72.20
2765.50,72.42
2765.00,72.63
2764.50,72.83
2764.00,73.03
2763.50,73.22
2763.00,73.41
2762.50,73.59
2762.00,73.77
2761.50,73.94
2761.00,74.11
2760.50,74.27
2760.00,74.43
2759.50,74.58
2759.00,74.72
2758.50,74.87
2758.00,75.00
2757.50,75.14
2757.00,75.27
2756.50,75.40
2756.00,75.52
2755.50,75.64
2755.00,75.75
2754.50,75.87
2754.00,75.98
2753.50,76.09
2753.00,76.19
2752.50,76.30
2752.00,76.40
2751.50,76.49
2751.00,76.59
2750.50,76.68
2750.00,76.77
2749.50,76.86
2749.00,76.95
2748.50,77.04
2748.00,77.13
2747.50,77.22
2747.00,77.30
2746.50,77.39
2746.00,77.47
2745.50,77.56
2745.00,77.64
2744.50,77.72
2744.00,77.80
2743.50,77.88
2743.00,77.95
2742.50,78.03
2742.00,78.10
2741.50,78.18
2741.00,78.25
2740.50,78.32
2740.00,78.38
2739.50,78.44
2739.00,78.51
2738.50,78.57
2738.00,78.63
2737.50,78.69
2737.00,78.74
2736.50,78.80
2736.00,78.86
2735.50,78.92
2735.00,78.97
2734.50,79.03
2734.00,79.08
2733.50,79.13
2733.00,79.18
2732.50,79.22
2732.00,79.27
2731.50,79.31
2731.00,79.35
2730.50,79.39
2730.00,79.43
2729.50,79.47
2729.00,79.50
2728.50,79.54
2728.00,79.58
2727.50,79.61
2727.00,79.64
2726.50,79.66
2726.00,79.69
2725.50,79.71
2725.00,79.74
2724.50,79.76
2724.00,79.79
2723.50,79.81
2723.00,79.82
2722.50,79.84
2722.00,79.84
2721.50,79.85
2721.00,79.86
2720.50,79.87
2720.00,79.87
2719.50,79.87
2719.00,79.87
2718.50,79.87
2718.00,79.87
2717.50,79.86
2717.00,79.85
2716.50,79.84
2716.00,79.83
2715.50,79.82
2715.00,79.81
2714.50,79.79
2714.00,79.78
2713.50,79.76
2713.00,79.75
2712.50,79.73
2712.00,79.72
2711.50,79.70
2711.00,79.69
2710.50,79.68
2710.00,79.67
2709.50,79.66
2709.00,79.66
2708.50,79.66
2708.00,79.66
2707.50,79.67
2707.00,79.67
2706.50,79.69
2706.00,79.70
2705.50,79.72
2705.00,79.74
2704.50,79.77
2704.00,79.79
2703.50,79.82
2703.00,79.85
2702.50,79.88
2702.00,79.92
2701.50,79.95
2701.00,79.98
2700.50,80.01
2700.00,80.05
2699.50,80.07
2699.00,80.10
2698.50,80.13
2698.00,80.16
2697.50,80.19
2697.00,80.21
2696.50,80.24
2696.00,80.26
2695.50,80.28
2695.00,80.29
2694.50,80.31
2694.00,80.32
2693.50,80.32
2693.00,80.33
2692.50,80.33
2692.00,80.33
2691.50,80.32
2691.00,80.32
2690.50,80.31
2690.00,80.29
2689.50,80.27
2689.00,80.25
2688.50,80.22
2688.00,80.18
2687.50,80.15
2687.00,80.10
2686.50,80.06
2686.00,80.01
2685.50,79.95
2685.00,79.90
2684.50,79.83
2684.00,79.76
2683.50,79.69
2683.00,79.61
2682.50,79.53
2682.00,79.44
2681.50,79.35
2681.00,79.25
2680.50,79.15
2680.00,79.04
2679.50,78.93
2679.00,78.82
2678.50,78.71
2678.00,78.59
2677.50,78.47
2677.00,78.34
2676.50,78.21
2676.00,78.08
2675.50,77.95
2675.00,77.81
2674.50,77.68
2674.00,77.54
2673.50,77.39
2673.00,77.25
2672.50,77.10
2672.00,76.95
2671.50,76.81
2671.00,76.66
2670.50,76.52
2670.00,76.38
2669.50,76.24
2669.00,76.11
2668.50,75.98
2668.00,75.85
2667.50,75.73
2667.00,75.62
2666.50,75.51
2666.00,75.42
2665.50,75.33
2665.00,75.26
2664.50,75.20
2664.00,75.15
2663.50,75.12
2663.00,75.09
2662.50,75.08
2662.00,75.08
2661.50,75.09
2661.00,75.12
2660.50,75.16
2660.00,75.21
2659.50,75.27
2659.00,75.35
2658.50,75.44
2658.00,75.54
2657.50,75.64
2657.00,75.76
2656.50,75.89
2656.00,76.03
2655.50,76.17
2655.00,76.33
2654.50,76.50
2654.00,76.67
2653.50,76.84
2653.00,77.03
2652.50,77.22
2652.00,77.41
2651.50,77.61
2651.00,77.81
2650.50,78.02
2650.00,78.22
2649.50,78.42
2649.00,78.62
2648.50,78.83
2648.00,79.02
2647.50,79.22
2647.00,79.42
2646.50,79.61
2646.00,79.80
2645.50,79.98
2645.00,80.16
2644.50,80.33
2644.00,80.50
2643.50,80.67
2643.00,80.83
2642.50,80.99
2642.00,81.14
2641.50,81.28
2641.00,81.42
2640.50,81.56
2640.00,81.69
2639.50,81.82
2639.00,81.94
2638.50,82.06
2638.00,82.17
2637.50,82.28
2637.00,82.39
2636.50,82.50
2636.00,82.60
2635.50,82.70
2635.00,82.79
2634.50,82.88
2634.00,82.96
2633.50,83.04
2633.00,83.12
2632.50,83.21
2632.00,83.28
2631.50,83.35
2631.00,83.42
2630.50,83.49
2630.00,83.56
2629.50,83.62
2629.00,83.68
2628.50,83.74
2628.00,83.80
2627.50,83.85
2627.00,83.91
2626.50,83.96
2626.00,84.02
2625.50,84.07
2625.00,84.11
2624.50,84.16
2624.00,84.21
2623.50,84.26
2623.00,84.30
2622.50,84.35
2622.00,84.39
2621.50,84.44
2621.00,84.48
2620.50,84.52
2620.00,84.55
2619.50,84.58
2619.00,84.62
2618.50,84.65
2618.00,84.68
2617.50,84.71
2617.00,84.74
2616.50,84.77
2616.00,84.81
2615.50,84.84
2615.00,84.87
2614.50,84.90
2614.00,84.92
2613.50,84.95
2613.00,84.97
2612.50,85.00
2612.00,85.02
2611.50,85.05
2611.00,85.07
2610.50,85.09
2610.00,85.12
2609.50,85.14
2609.00,85.16
2608.50,85.18
2608.00,85.20
2607.50,85.22
2607.00,85.25
2606.50,85.27
2606.00,85.29
2605.50,85.30
2605.00,85.32
2604.50,85.34
2604.00,85.35
2603.50,85.37
2603.00,85.39
2602.50,85.40
2602.00,85.42
2601.50,85.43
2601.00,85.45
2600.50,85.46
2600.00,85.48
2599.50,85.49
2599.00,85.50
2598.50,85.51
2598.00,85.53
2597.50,85.53
2597.00,85.55
2596.50,85.56
2596.00,85.57
2595.50,85.58
2595.00,85.59
2594.50,85.60
2594.00,85.61
2593.50,85.62
2593.00,85.63
2592.50,85.64
2592.00,85.65
2591.50,85.66
2591.00,85.67
2590.50,85.69
2590.00,85.70
2589.50,85.71
2589.00,85.72
2588.50,85.73
2588.00,85.74
2587.50,85.75
2587.00,85.76
2586.50,85.77
2586.00,85.78
2585.50,85.79
2585.00,85.79
2584.50,85.80
2584.00,85.81
2583.50,85.82
2583.00,85.83
2582.50,85.84
2582.00,85.84
2581.50,85.85
2581.00,85.85
2580.50,85.86
2580.00,85.87
2579.50,85.87
2579.00,85.88
2578.50,85.89
2578.00,85.89
2577.50,85.90
2577.00,85.90
2576.50,85.91
2576.00,85.92
2575.50,85.92
2575.00,85.93
2574.50,85.93
2574.00,85.94
2573.50,85.95
2573.00,85.95
2572.50,85.96
2572.00,85.96
2571.50,85.97
2571.00,85.97
2570.50,85.98
2570.00,85.98
2569.50,85.98
2569.00,85.99
2568.50,86.00
2568.00,86.00
2567.50,86.00
2567.00,86.00
2566.50,86.01
2566.00,86.01
2565.50,86.01
2565.00,86.01
2564.50,86.02
2564.00,86.02
2563.50,86.02
2563.00,86.02
2562.50,86.02
2562.00,86.02
2561.50,86.02
2561.00,86.02
2560.50,86.03
2560.00,86.03
2559.50,86.02
2559.00,86.02
2558.50,86.02
2558.00,86.02
2557.50,86.02
2557.00,86.01
2556.50,86.01
2556.00,86.01
2555.50,86.00
2555.00,86.00
2554.50,86.00
2554.00,86.00
2553.50,85.99
2553.00,85.99
2552.50,85.98
2552.00,85.98
2551.50,85.98
2551.00,85.97
2550.50,85.97
2550.00,85.96
2549.50,85.96
2549.00,85.95
2548.50,85.95
2548.00,85.94
2547.50,85.94
2547.00,85.93
2546.50,85.92
2546.00,85.92
2545.50,85.91
2545.00,85.90
2544.50,85.89
2544.00,85.89
2543.50,85.88
2543.00,85.87
2542.50,85.87
2542.00,85.87
2541.50,85.86
2541.00,85.85
2540.50,85.84
2540.00,85.83
2539.50,85.82
2539.00,85.81
2538.50,85.80
2538.00,85.79
2537.50,85.77
2537.00,85.76
2536.50,85.74
2536.00,85.72
2535.50,85.71
2535.00,85.69
2534.50,85.68
2534.00,85.66
2533.50,85.63
2533.00,85.61
2532.50,85.58
2532.00,85.55
2531.50,85.52
2531.00,85.50
2530.50,85.47
2530.00,85.44
2529.50,85.40
2529.00,85.37
2528.50,85.33
2528.00,85.29
2527.50,85.25
2527.00,85.21
2526.50,85.17
2526.00,85.13
2525.50,85.09
2525.00,85.04
2524.50,84.99
2524.00,84.94
2523.50,84.90
2523.00,84.85
2522.50,84.80
2522.00,84.74
2521.50,84.68
2521.00,84.62
2520.50,84.56
2520.00,84.50
2519.50,84.44
2519.00,84.37
2518.50,84.31
2518.00,84.23
2517.50,84.16
2517.00,84.07
2516.50,83.98
2516.00,83.89
2515.50,83.79
2515.00,83.69
2514.50,83.58
2514.00,83.45
2513.50,83.32
2513.00,83.18
2512.50,83.03
2512.00,82.87
2511.50,82.69
2511.00,82.50
2510.50,82.29
2510.00,82.06
2509.50,81.81
2509.00,81.54
2508.50,81.25
2508.00,80.94
2507.50,80.59
2507.00,80.22
2506.50,79.83
2506.00,79.41
2505.50,78.96
2505.00,78.50
2504.50,78.03
2504.00,77.56
2503.50,77.09
2503.00,76.64
2502.50,76.21
2502.00,75.82
2501.50,75.48
2501.00,75.20
2500.50,74.99
2500.00,74.85
2499.50,74.79
2499.00,74.80
2498.50,74.88
2498.00,75.03
2497.50,75.22
2497.00,75.47
2496.50,75.75
2496.00,76.05
2495.50,76.38
2495.00,76.72
2494.50,77.06
2494.00,77.41
2493.50,77.75
2493.00,78.10
2492.50,78.43
2492.00,78.77
2491.50,79.09
2491.00,79.41
2490.50,79.73
2490.00,80.03
2489.50,80.33
2489.00,80.62
2488.50,80.90
2488.00,81.17
2487.50,81.44
2487.00,81.69
2486.50,81.93
2486.00,82.16
2485.50,82.37
2485.00,82.57
2484.50,82.77
2484.00,82.94
2483.50,83.11
2483.00,83.27
2482.50,83.42
2482.00,83.56
2481.50,83.69
2481.00,83.81
2480.50,83.92
2480.00,84.03
2479.50,84.13
2479.00,84.23
2478.50,84.32
2478.00,84.40
2477.50,84.48
2477.00,84.56
2476.50,84.64
2476.00,84.71
2475.50,84.77
2475.00,84.83
2474.50,84.89
2474.00,84.95
2473.50,85.00
2473.00,85.05
2472.50,85.09
2472.00,85.14
2471.50,85.18
2471.00,85.22
2470.50,85.26
2470.00,85.30
2469.50,85.33
2469.00,85.36
2468.50,85.40
2468.00,85.43
2467.50,85.45
2467.00,85.48
2466.50,85.51
2466.00,85.53
2465.50,85.56
2465.00,85.58
2464.50,85.61
2464.00,85.63
2463.50,85.65
2463.00,85.67
2462.50,85.69
2462.00,85.71
2461.50,85.73
2461.00,85.75
2460.50,85.76
2460.00,85.78
2459.50,85.80
2459.00,85.81
2458.50,85.83
2458.00,85.85
2457.50,85.86
2457.00,85.88
2456.50,85.89
2456.00,85.91
2455.50,85.92
2455.00,85.93
2454.50,85.94
2454.00,85.96
2453.50,85.97
2453.00,85.98
2452.50,85.99
2452.00,86.00
2451.50,86.01
2451.00,86.02
2450.50,86.04
2450.00,86.05
2449.50,86.06
2449.00,86.06
2448.50,86.08
2448.00,86.09
2447.50,86.09
2447.00,86.10
2446.50,86.11
2446.00,86.11
2445.50,86.12
2445.00,86.13
2444.50,86.14
2444.00,86.14
2443.50,86.15
2443.00,86.15
2442.50,86.16
2442.00,86.17
2441.50,86.17
2441.00,86.17
2440.50,86.18
2440.00,86.18
2439.50,86.18
2439.00,86.18
2438.50,86.19
2438.00,86.19
2437.50,86.19
2437.00,86.19
2436.50,86.20
2436.00,86.20
2435.50,86.20
2435.00,86.20
2434.50,86.21
2434.00,86.21
2433.50,86.21
2433.00,86.21
2432.50,86.22
2432.00,86.22
2431.50,86.22
2431.00,86.22
2430.50,86.22
2430.00,86.22
2429.50,86.22
2429.00,86.22
2428.50,86.23
2428.00,86.23
2427.50,86.23
2427.00,86.23
2426.50,86.23
2426.00,86.23
2425.50,86.22
2425.00,86.22
2424.50,86.22
2424.00,86.22
2423.50,86.22
2423.00,86.22
2422.50,86.22
2422.00,86.23
2421.50,86.22
2421.00,86.22
2420.50,86.22
2420.00,86.22
2419.50,86.22
2419.00,86.21
2418.50,86.22
2418.00,86.22
2417.50,86.21
2417.00,86.21
2416.50,86.21
2416.00,86.21
2415.50,86.20
2415.00,86.20
2414.50,86.20
2414.00,86.19
2413.50,86.19
2413.00,86.18
2412.50,86.18
2412.00,86.18
2411.50,86.17
2411.00,86.17
2410.50,86.17
2410.00,86.16
2409.50,86.16
2409.00,86.16
2408.50,86.15
2408.00,86.15
2407.50,86.15
2407.00,86.14
2406.50,86.14
2406.00,86.14
2405.50,86.14
2405.00,86.13
2404.50,86.13
2404.00,86.13
2403.50,86.12
2403.00,86.12
2402.50,86.12
2402.00,86.12
2401.50,86.12
2401.00,86.11
2400.50,86.11
2400.00,86.11
2399.50,86.11
2399.00,86.10
2398.50,86.10
2398.00,86.10
2397.50,86.09
2397.00,86.09
2396.50,86.09
2396.00,86.09
2395.50,86.08
2395.00,86.08
2394.50,86.07
2394.00,86.07
2393.50,86.06
2393.00,86.06
2392.50,86.06
2392.00,86.05
2391.50,86.05
2391.00,86.04
2390.50,86.04
2390.00,86.03
2389.50,86.02
2389.00,86.02
2388.50,86.01
2388.00,86.01
2387.50,86.00
2387.00,85.99
2386.50,85.99
2386.00,85.99
2385.50,85.98
2385.00,85.97
2384.50,85.97
2384.00,85.96
2383.50,85.95
2383.00,85.94
2382.50,85.94
2382.00,85.93
2381.50,85.92
2381.00,85.90
2380.50,85.89
2380.00,85.87
2379.50,85.85
2379.00,85.83
2378.50,85.82
2378.00,85.81
2377.50,85.80
2377.00,85.78
2376.50,85.78
2376.00,85.77
2375.50,85.76
2375.00,85.76
2374.50,85.76
2374.00,85.76
2373.50,85.76
2373.00,85.75
2372.50,85.76
2372.00,85.76
2371.50,85.75
2371.00,85.74
2370.50,85.74
2370.00,85.74
2369.50,85.72
2369.00,85.71
2368.50,85.71
2368.00,85.70
2367.50,85.69
2367.00,85.67
2366.50,85.67
2366.00,85.67
2365.50,85.65
2365.00,85.64
2364.50,85.65
2364.00,85.65
2363.50,85.63
2363.00,85.61
2362.50,85.60
2362.00,85.60
2361.50,85.59
2361.00,85.58
2360.50,85.59
2360.00,85.58
2359.50,85.56
2359.00,85.54
2358.50,85.55
2358.00,85.56
2357.50,85.54
2357.00,85.52
2356.50,85.51
2356.00,85.49
2355.50,85.46
2355.00,85.44
2354.50,85.44
2354.00,85.44
2353.50,85.42
2353.00,85.39
2352.50,85.36
2352.00,85.34
2351.50,85.32
2351.00,85.31
2350.50,85.32
2350.00,85.33
2349.50,85.33
2349.00,85.31
2348.50,85.29
2348.00,85.26
2347.50,85.24
2347.00,85.22
2346.50,85.22
2346.00,85.22
2345.50,85.22
2345.00,85.21
2344.50,85.22
2344.00,85.22
2343.50,85.22
2343.00,85.20
2342.50,85.18
2342.00,85.16
2341.50,85.12
2341.00,85.07
2340.50,85.03
2340.00,85.00
2339.50,84.96
2339.00,84.92
2338.50,84.91
2338.00,84.92
2337.50,84.92
2337.00,84.92
2336.50,84.93
2336.00,84.95
2335.50,84.95
2335.00,84.93
2334.50,84.94
2334.00,84.95
2333.50,84.94
2333.00,84.92
2332.50,84.91
2332.00,84.91
2331.50,84.89
2331.00,84.87
2330.50,84.87
2330.00,84.87
2329.50,84.87
2329.00,84.85
2328.50,84.85
2328.00,84.85
2327.50,84.83
2327.00,84.80
2326.50,84.79
2326.00,84.78
2325.50,84.76
2325.00,84.74
2324.50,84.73
2324.00,84.72
2323.50,84.69
2323.00,84.66
2322.50,84.65
2322.00,84.64
2321.50,84.62
2321.00,84.60
2320.50,84.58
2320.00,84.57
2319.50,84.54
2319.00,84.52
2318.50,84.51
2318.00,84.50
2317.50,84.47
2317.00,84.45
2316.50,84.43
2316.00,84.41
2315.50,84.38
2315.00,84.36
2314.50,84.33
2314.00,84.30
2313.50,84.27
2313.00,84.25
2312.50,84.23
2312.00,84.21
2311.50,84.19
2311.00,84.17
2310.50,84.15
2310.00,84.13
2309.50,84.11
2309.00,84.08
2308.50,84.05
2308.00,84.03
2307.50,84.00
2307.00,83.98
2306.50,83.95
2306.00,83.92
2305.50,83.90
2305.00,83.87
2304.50,83.84
2304.00,83.81
2303.50,83.79
2303.00,83.76
2302.50,83.73
2302.00,83.70
2301.50,83.67
2301.00,83.64
2300.50,83.61
2300.00,83.58
2299.50,83.54
2299.00,83.51
2298.50,83.48
2298.00,83.44
2297.50,83.40
2297.00,83.37
2296.50,83.34
2296.00,83.30
2295.50,83.26
2295.00,83.22
2294.50,83.18
2294.00,83.14
2293.50,83.10
2293.00,83.06
2292.50,83.01
2292.00,82.97
2291.50,82.92
2291.00,82.88
2290.50,82.84
2290.00,82.79
2289.50,82.75
2289.00,82.70
2288.50,82.66
2288.00,82.62
2287.50,82.57
2287.00,82.51
2286.50,82.46
2286.00,82.42
2285.50,82.36
2285.00,82.31
2284.50,82.26
2284.00,82.21
2283.50,82.16
2283.00,82.11
2282.50,82.06
2282.00,82.01
2281.50,81.96
2281.00,81.91
2280.50,81.86
2280.00,81.81
2279.50,81.76
2279.00,81.72
2278.50,81.67
2278.00,81.63
2277.50,81.59
2277.00,81.54
2276.50,81.50
2276.00,81.47
2275.50,81.43
2275.00,81.40
2274.50,81.37
2274.00,81.34
2273.50,81.30
2273.00,81.27
2272.50,81.25
2272.00,81.23
2271.50,81.20
2271.00,81.18
2270.50,81.16
2270.00,81.15
2269.50,81.13
2269.00,81.12
2268.50,81.10
2268.00,81.09
2267.50,81.07
2267.00,81.05
2266.50,81.03
2266.00,81.02
2265.50,80.99
2265.00,80.97
2264.50,80.96
2264.00,80.94
2263.50,80.92
2263.00,80.89
2262.50,80.87
2262.00,80.85
2261.50,80.83
2261.00,80.80
2260.50,80.78
2260.00,80.76
2259.50,80.73
2259.00,80.70
2258.50,80.67
2258.00,80.64
2257.50,80.61
2257.00,80.58
2256.50,80.55
2256.00,80.52
2255.50,80.48
2255.00,80.45
2254.50,80.41
2254.00,80.38
2253.50,80.33
2253.00,80.29
2252.50,80.25
2252.00,80.21
2251.50,80.17
2251.00,80.12
2250.50,80.08
2250.00,80.03
2249.50,79.98
2249.00,79.93
2248.50,79.88
2248.00,79.83
2247.50,79.77
2247.00,79.72
2246.50,79.66
2246.00,79.60
2245.50,79.54
2245.00,79.48
2244.50,79.42
2244.00,79.36
2243.50,79.30
2243.00,79.23
2242.50,79.17
2242.00,79.11
2241.50,79.04
2241.00,78.96
2240.50,78.89
2240.00,78.82
2239.50,78.74
2239.00,78.66
2238.50,78.58
2238.00,78.50
2237.50,78.42
2237.00,78.33
2236.50,78.24
2236.00,78.15
2235.50,78.05
2235.00,77.96
2234.50,77.86
2234.00,77.76
2233.50,77.65
2233.00,77.54
2232.50,77.44
2232.00,77.33
2231.50,77.21
2231.00,77.09
2230.50,76.97
2230.00,76.85
2229.50,76.73
2229.00,76.60
2228.50,76.46
2228.00,76.33
2227.50,76.19
2227.00,76.05
2226.50,75.91
2226.00,75.77
2225.50,75.62
2225.00,75.47
2224.50,75.32
2224.00,75.17
2223.50,75.01
2223.00,74.85
2222.50,74.68
2222.00,74.52
2221.50,74.36
2221.00,74.18
2220.50,74.01
2220.00,73.84
2219.50,73.66
2219.00,73.47
2218.50,73.29
2218.00,73.10
2217.50,72.91
2217.00,72.71
2216.50,72.51
2216.00,72.30
2215.50,72.09
2215.00,71.87
2214.50,71.65
2214.00,71.42
2213.50,71.18
2213.00,70.94
2212.50,70.69
2212.00,70.44
2211.50,70.18
2211.00,69.91
2210.50,69.64
2210.00,69.36
2209.50,69.07
2209.00,68.76
2208.50,68.46
2208.00,68.15
2207.50,67.82
2207.00,67.48
2206.50,67.14
2206.00,66.79
2205.50,66.43
2205.00,66.06
2204.50,65.68
2204.00,65.29
2203.50,64.89
2203.00,64.47
2202.50,64.05
2202.00,63.62
2201.50,63.17
2201.00,62.71
2200.50,62.24
2200.00,61.76
2199.50,61.27
2199.00,60.75
2198.50,60.23
2198.00,59.70
2197.50,59.16
2197.00,58.59
2196.50,58.01
2196.00,57.43
2195.50,56.83
2195.00,56.21
2194.50,55.58
2194.00,54.93
2193.50,54.27
2193.00,53.59
2192.50,52.90
2192.00,52.20
2191.50,51.49
2191.00,50.75
2190.50,50.01
2190.00,49.26
2189.50,48.50
2189.00,47.71
2188.50,46.92
2188.00,46.12
2187.50,45.31
2187.00,44.48
2186.50,43.64
2186.00,42.81
2185.50,41.96
2185.00,41.10
2184.50,40.25
2184.00,39.39
2183.50,38.52
2183.00,37.65
2182.50,36.78
2182.00,35.92
2181.50,35.07
2181.00,34.20
2180.50,33.34
2180.00,32.51
2179.50,31.68
2179.00,30.85
2178.50,30.04
2178.00,29.26
2177.50,28.49
2177.00,27.72
2176.50,26.98
2176.00,26.28
2175.50,25.60
2175.00,24.92
2174.50,24.27
2174.00,23.66
2173.50,23.07
2173.00,22.48
2172.50,21.93
2172.00,21.41
2171.50,20.92
2171.00,20.45
2170.50,20.00
2170.00,19.60
2169.50,19.21
2169.00,18.84
2168.50,18.50
2168.00,18.19
2167.50,17.91
2167.00,17.64
2166.50,17.41
2166.00,17.21
2165.50,17.04
2165.00,16.88
2164.50,16.75
2164.00,16.66
2163.50,16.58
2163.00,16.52
2162.50,16.50
2162.00,16.51
2161.50,16.54
2161.00,16.59
2160.50,16.67
2160.00,16.78
2159.50,16.92
2159.00,17.07
2158.50,17.25
2158.00,17.47
2157.50,17.72
2157.00,17.97
2156.50,18.26
2156.00,18.59
2155.50,18.93
2155.00,19.30
2154.50,19.69
2154.00,20.12
2153.50,20.58
2153.00,21.05
2152.50,21.55
2152.00,22.09
2151.50,22.65
2151.00,23.23
2150.50,23.83
2150.00,24.48
2149.50,25.14
2149.00,25.81
2148.50,26.51
2148.00,27.25
2147.50,28.00
2147.00,28.75
2146.50,29.53
2146.00,30.34
2145.50,31.16
2145.00,31.98
2144.50,32.82
2144.00,33.67
2143.50,34.54
2143.00,35.40
2142.50,36.27
2142.00,37.15
2141.50,38.03
2141.00,38.90
2140.50,39.78
2140.00,40.67
2139.50,41.55
2139.00,42.42
2138.50,43.28
2138.00,44.14
2137.50,44.99
2137.00,45.83
2136.50,46.66
2136.00,47.49
2135.50,48.30
2135.00,49.09
2134.50,49.87
2134.00,50.64
2133.50,51.38
2133.00,52.10
2132.50,52.81
2132.00,53.51
2131.50,54.18
2131.00,54.83
2130.50,55.47
2130.00,56.08
2129.50,56.68
2129.00,57.25
2128.50,57.81
2128.00,58.35
2127.50,58.87
2127.00,59.36
2126.50,59.84
2126.00,60.31
2125.50,60.75
2125.00,61.18
2124.50,61.60
2124.00,62.00
2123.50,62.39
2123.00,62.76
2122.50,63.12
2122.00,63.47
2121.50,63.80
2121.00,64.12
2120.50,64.43
2120.00,64.73
2119.50,65.01
2119.00,65.29
2118.50,65.55
2118.00,65.81
2117.50,66.05
2117.00,66.28
2116.50,66.51
2116.00,66.72
2115.50,66.93
2115.00,67.12
2114.50,67.32
2114.00,67.50
2113.50,67.67
2113.00,67.84
2112.50,68.00
2112.00,68.15
2111.50,68.30
2111.00,68.44
2110.50,68.58
2110.00,68.71
2109.50,68.84
2109.00,68.97
2108.50,69.09
2108.00,69.21
2107.50,69.33
2107.00,69.44
2106.50,69.56
2106.00,69.67
2105.50,69.77
2105.00,69.88
2104.50,69.98
2104.00,70.09
2103.50,70.18
2103.00,70.28
2102.50,70.37
2102.00,70.47
2101.50,70.56
2101.00,70.64
2100.50,70.73
2100.00,70.81
2099.50,70.89
2099.00,70.97
2098.50,71.05
2098.00,71.13
2097.50,71.20
2097.00,71.26
2096.50,71.33
2096.00,71.39
2095.50,71.44
2095.00,71.50
2094.50,71.55
2094.00,71.60
2093.50,71.64
2093.00,71.68
2092.50,71.71
2092.00,71.74
2091.50,71.76
2091.00,71.78
2090.50,71.80
2090.00,71.81
2089.50,71.82
2089.00,71.83
2088.50,71.83
2088.00,71.83
2087.50,71.82
2087.00,71.81
2086.50,71.80
2086.00,71.80
2085.50,71.78
2085.00,71.77
2084.50,71.76
2084.00,71.75
2083.50,71.73
2083.00,71.71
2082.50,71.69
2082.00,71.67
2081.50,71.65
2081.00,71.62
2080.50,71.60
2080.00,71.58
2079.50,71.56
2079.00,71.53
2078.50,71.50
2078.00,71.48
2077.50,71.44
2077.00,71.41
2076.50,71.37
2076.00,71.33
2075.50,71.28
2075.00,71.24
2074.50,71.19
2074.00,71.14
2073.50,71.08
2073.00,71.02
2072.50,70.96
2072.00,70.90
2071.50,70.84
2071.00,70.77
2070.50,70.70
2070.00,70.63
2069.50,70.55
2069.00,70.47
2068.50,70.38
2068.00,70.29
2067.50,70.19
2067.00,70.11
2066.50,70.03
2066.00,69.95
2065.50,69.86
2065.00,69.77
2064.50,69.68
2064.00,69.58
2063.50,69.49
2063.00,69.39
2062.50,69.29
2062.00,69.19
2061.50,69.08
2061.00,68.98
2060.50,68.87
2060.00,68.77
2059.50,68.66
2059.00,68.55
2058.50,68.45
2058.00,68.35
2057.50,68.25
2057.00,68.15
2056.50,68.05
2056.00,67.96
2055.50,67.88
2055.00,67.80
2054.50,67.73
2054.00,67.67
2053.50,67.61
2053.00,67.57
2052.50,67.55
2052.00,67.54
2051.50,67.54
2051.00,67.57
2050.50,67.61
2050.00,67.68
2049.50,67.76
2049.00,67.87
2048.50,68.00
2048.00,68.16
2047.50,68.33
2047.00,68.53
2046.50,68.75
2046.00,69.00
2045.50,69.26
2045.00,69.53
2044.50,69.82
2044.00,70.12
2043.50,70.43
2043.00,70.73
2042.50,71.05
2042.00,71.37
2041.50,71.69
2041.00,72.01
2040.50,72.32
2040.00,72.61
2039.50,72.88
2039.00,73.15
2038.50,73.40
2038.00,73.64
2037.50,73.87
2037.00,74.08
2036.50,74.27
2036.00,74.45
2035.50,74.61
2035.00,74.75
2034.50,74.88
2034.00,74.99
2033.50,75.09
2033.00,75.17
2032.50,75.24
2032.00,75.30
2031.50,75.34
2031.00,75.37
2030.50,75.39
2030.00,75.40
2029.50,75.39
2029.00,75.37
2028.50,75.35
2028.00,75.32
2027.50,75.27
2027.00,75.22
2026.50,75.16
2026.00,75.09
2025.50,75.01
2025.00,74.92
2024.50,74.83
2024.00,74.74
2023.50,74.64
2023.00,74.53
2022.50,74.42
2022.00,74.30
2021.50,74.18
2021.00,74.06
2020.50,73.93
2020.00,73.80
2019.50,73.66
2019.00,73.51
2018.50,73.37
2018.00,73.22
2017.50,73.06
2017.00,72.89
2016.50,72.73
2016.00,72.57
2015.50,72.40
2015.00,72.23
2014.50,72.06
2014.00,71.88
2013.50,71.70
2013.00,71.51
2012.50,71.33
2012.00,71.16
2011.50,70.98
2011.00,70.81
2010.50,70.65
2010.00,70.49
2009.50,70.35
2009.00,70.20
2008.50,70.08
2008.00,69.96
2007.50,69.84
2007.00,69.73
2006.50,69.64
2006.00,69.54
2005.50,69.45
2005.00,69.35
2004.50,69.27
2004.00,69.18
2003.50,69.09
2003.00,68.99
2002.50,68.89
2002.00,68.80
2001.50,68.71
2001.00,68.61
2000.50,68.53
2000.00,68.45
1999.50,68.38
1999.00,68.32
1998.50,68.27
1998.00,68.23
1997.50,68.17
1997.00,68.12
1996.50,68.09
1996.00,68.09
1995.50,68.13
1995.00,68.19
1994.50,68.25
1994.00,68.29
1993.50,68.31
1993.00,68.33
1992.50,68.34
1992.00,68.35
1991.50,68.34
1991.00,68.32
1990.50,68.28
1990.00,68.24
1989.50,68.17
1989.00,68.10
1988.50,68.02
1988.00,67.92
1987.50,67.82
1987.00,67.70
1986.50,67.58
1986.00,67.45
1985.50,67.31
1985.00,67.16
1984.50,67.00
1984.00,66.83
1983.50,66.65
1983.00,66.46
1982.50,66.27
1982.00,66.07
1981.50,65.85
1981.00,65.63
1980.50,65.40
1980.00,65.16
1979.50,64.92
1979.00,64.66
1978.50,64.39
1978.00,64.12
1977.50,63.84
1977.00,63.54
1976.50,63.24
1976.00,62.93
1975.50,62.61
1975.00,62.29
1974.50,61.95
1974.00,61.62
1973.50,61.27
1973.00,60.92
1972.50,60.56
1972.00,60.21
1971.50,59.85
1971.00,59.49
1970.50,59.13
1970.00,58.77
1969.50,58.41
1969.00,58.07
1968.50,57.72
1968.00,57.37
1967.50,57.02
1967.00,56.67
1966.50,56.35
1966.00,56.04
1965.50,55.76
1965.00,55.47
1964.50,55.19
1964.00,54.92
1963.50,54.66
1963.00,54.40
1962.50,54.14
1962.00,53.90
1961.50,53.66
1961.00,53.41
1960.50,53.17
1960.00,52.94
1959.50,52.71
1959.00,52.47
1958.50,52.23
1958.00,51.99
1957.50,51.74
1957.00,51.49
1956.50,51.24
1956.00,50.98
1955.50,50.71
1955.00,50.43
1954.50,50.15
1954.00,49.87
1953.50,49.59
1953.00,49.29
1952.50,48.99
1952.00,48.69
1951.50,48.40
1951.00,48.09
1950.50,47.79
1950.00,47.50
1949.50,47.21
1949.00,46.93
1948.50,46.66
1948.00,46.41
1947.50,46.19
1947.00,45.98
1946.50,45.79
1946.00,45.64
1945.50,45.51
1945.00,45.41
1944.50,45.35
1944.00,45.32
1943.50,45.35
1943.00,45.44
1942.50,45.60
1942.00,45.80
1941.50,46.03
1941.00,46.27
1940.50,46.56
1940.00,46.90
1939.50,47.28
1939.00,47.68
1938.50,48.11
1938.00,48.57
1937.50,49.05
1937.00,49.52
1936.50,50.01
1936.00,50.50
1935.50,50.97
1935.00,51.43
1934.50,51.87
1934.00,52.31
1933.50,52.74
1933.00,53.14
1932.50,53.52
1932.00,53.88
1931.50,54.21
1931.00,54.51
1930.50,54.80
1930.00,55.07
1929.50,55.32
1929.00,55.55
1928.50,55.77
1928.00,55.97
1927.50,56.16
1927.00,56.33
1926.50,56.50
1926.00,56.65
1925.50,56.79
1925.00,56.91
1924.50,57.03
1924.00,57.15
1923.50,57.28
1923.00,57.42
1922.50,57.57
1922.00,57.69
1921.50,57.79
1921.00,57.89
1920.50,57.99
1920.00,58.09
1919.50,58.18
1919.00,58.31
1918.50,58.48
1918.00,58.68
1917.50,58.86
1917.00,59.01
1916.50,59.16
1916.00,59.34
1915.50,59.54
1915.00,59.75
1914.50,59.98
1914.00,60.22
1913.50,60.46
1913.00,60.71
1912.50,60.95
1912.00,61.18
1911.50,61.39
1911.00,61.61
1910.50,61.84
1910.00,62.08
1909.50,62.29
1909.00,62.48
1908.50,62.67
1908.00,62.86
1907.50,63.04
1907.00,63.21
1906.50,63.37
1906.00,63.52
1905.50,63.67
1905.00,63.81
1904.50,63.95
1904.00,64.08
1903.50,64.19
1903.00,64.30
1902.50,64.40
1902.00,64.49
1901.50,64.58
1901.00,64.65
1900.50,64.72
1900.00,64.78
1899.50,64.82
1899.00,64.86
1898.50,64.90
1898.00,64.93
1897.50,64.95
1897.00,64.96
1896.50,64.97
1896.00,64.98
1895.50,64.99
1895.00,65.00
1894.50,65.00
1894.00,65.00
1893.50,64.99
1893.00,64.98
1892.50,64.97
1892.00,64.96
1891.50,64.94
1891.00,64.91
1890.50,64.90
1890.00,64.89
1889.50,64.88
1889.00,64.87
1888.50,64.86
1888.00,64.85
1887.50,64.83
1887.00,64.80
1886.50,64.79
1886.00,64.78
1885.50,64.76
1885.00,64.74
1884.50,64.73
1884.00,64.71
1883.50,64.69
1883.00,64.67
1882.50,64.66
1882.00,64.64
1881.50,64.62
1881.00,64.60
1880.50,64.59
1880.00,64.57
1879.50,64.55
1879.00,64.53
1878.50,64.51
1878.00,64.49
1877.50,64.47
1877.00,64.45
1876.50,64.43
1876.00,64.41
1875.50,64.39
1875.00,64.37
1874.50,64.35
1874.00,64.34
1873.50,64.31
1873.00,64.30
1872.50,64.28
1872.00,64.27
1871.50,64.25
1871.00,64.23
1870.50,64.22
1870.00,64.22
1869.50,64.22
1869.00,64.23
1868.50,64.22
1868.00,64.22
1867.50,64.21
1867.00,64.20
1866.50,64.20
1866.00,64.21
1865.50,64.20
1865.00,64.19
1864.50,64.19
1864.00,64.19
1863.50,64.19
1863.00,64.18
1862.50,64.18
1862.00,64.17
1861.50,64.16
1861.00,64.15
1860.50,64.14
1860.00,64.12
1859.50,64.10
1859.00,64.07
1858.50,64.05
1858.00,64.03
1857.50,64.00
1857.00,63.96
1856.50,63.93
1856.00,63.90
1855.50,63.87
1855.00,63.84
1854.50,63.82
1854.00,63.81
1853.50,63.79
1853.00,63.77
1852.50,63.77
1852.00,63.77
1851.50,63.77
1851.00,63.77
1850.50,63.78
1850.00,63.80
1849.50,63.81
1849.00,63.83
1848.50,63.86
1848.00,63.90
1847.50,63.95
1847.00,63.98
1846.50,64.01
1846.00,64.04
1845.50,64.07
1845.00,64.14
1844.50,64.24
1844.00,64.31
1843.50,64.30
1843.00,64.27
1842.50,64.26
1842.00,64.26
1841.50,64.27
1841.00,64.28
1840.50,64.28
1840.00,64.28
1839.50,64.27
1839.00,64.25
1838.50,64.24
1838.00,64.23
1837.50,64.22
1837.00,64.20
1836.50,64.18
1836.00,64.16
1835.50,64.13
1835.00,64.09
1834.50,64.06
1834.00,64.02
1833.50,63.98
1833.00,63.93
1832.50,63.88
1832.00,63.84
1831.50,63.78
1831.00,63.73
1830.50,63.69
1830.00,63.67
1829.50,63.60
1829.00,63.52
1828.50,63.45
1828.00,63.39
1827.50,63.32
1827.00,63.24
1826.50,63.16
1826.00,63.08
1825.50,62.99
1825.00,62.91
1824.50,62.85
1824.00,62.79
1823.50,62.71
1823.00,62.62
1822.50,62.53
1822.00,62.44
1821.50,62.35
1821.00,62.25
1820.50,62.16
1820.00,62.06
1819.50,61.96
1819.00,61.86
1818.50,61.76
1818.00,61.66
1817.50,61.55
1817.00,61.44
1816.50,61.33
1816.00,61.23
1815.50,61.12
1815.00,61.00
1814.50,60.88
1814.00,60.77
1813.50,60.65
1813.00,60.53
1812.50,60.41
1812.00,60.28
1811.50,60.15
1811.00,60.01
1810.50,59.87
1810.00,59.75
1809.50,59.62
1809.00,59.49
1808.50,59.35
1808.00,59.21
1807.50,59.07
1807.00,58.92
1806.50,58.79
1806.00,58.65
1805.50,58.50
1805.00,58.35
1804.50,58.20
1804.00,58.06
1803.50,57.91
1803.00,57.75
1802.50,57.60
1802.00,57.46
1801.50,57.32
1801.00,57.19
1800.50,57.06
1800.00,56.92
1799.50,56.76
1799.00,56.62
1798.50,56.49
1798.00,56.37
1797.50,56.24
1797.00,56.11
1796.50,55.97
1796.00,55.84
1795.50,55.70
1795.00,55.57
1794.50,55.46
1794.00,55.36
1793.50,55.27
1793.00,55.15
1792.50,55.03
1792.00,54.89
1791.50,54.76
1791.00,54.63
1790.50,54.51
1790.00,54.42
1789.50,54.32
1789.00,54.22
1788.50,54.13
1788.00,54.04
1787.50,53.94
1787.00,53.86
1786.50,53.78
1786.00,53.71
1785.50,53.63
1785.00,53.55
1784.50,53.48
1784.00,53.41
1783.50,53.35
1783.00,53.28
1782.50,53.22
1782.00,53.16
1781.50,53.10
1781.00,53.05
1780.50,53.02
1780.00,52.99
1779.50,52.96
1779.00,52.93
1778.50,52.90
1778.00,52.88
1777.50,52.84
1777.00,52.81
1776.50,52.79
1776.00,52.78
1775.50,52.77
1775.00,52.77
1774.50,52.76
1774.00,52.75
1773.50,52.75
1773.00,52.80
1772.50,52.87
1772.00,52.90
1771.50,52.87
1771.00,52.85
1770.50,52.84
1770.00,52.82
1769.50,52.81
1769.00,52.81
1768.50,52.84
1768.00,52.89
1767.50,52.92
1767.00,52.93
1766.50,52.95
1766.00,52.96
1765.50,52.98
1765.00,53.00
1764.50,53.03
1764.00,53.05
1763.50,53.06
1763.00,53.09
1762.50,53.14
1762.00,53.21
1761.50,53.26
1761.00,53.27
1760.50,53.28
1760.00,53.28
1759.50,53.29
1759.00,53.31
1758.50,53.33
1758.00,53.35
1757.50,53.38
1757.00,53.43
1756.50,53.48
1756.00,53.50
1755.50,53.51
1755.00,53.51
1754.50,53.53
1754.00,53.55
1753.50,53.55
1753.00,53.55
1752.50,53.55
1752.00,53.57
1751.50,53.60
1751.00,53.63
1750.50,53.64
1750.00,53.63
1749.50,53.61
1749.00,53.62
1748.50,53.64
1748.00,53.64
1747.50,53.63
1747.00,53.62
1746.50,53.61
1746.00,53.58
1745.50,53.55
1745.00,53.51
1744.50,53.47
1744.00,53.44
1743.50,53.40
1743.00,53.38
1742.50,53.36
1742.00,53.34
1741.50,53.30
1741.00,53.28
1740.50,53.26
1740.00,53.22
1739.50,53.15
1739.00,53.08
1738.50,53.01
1738.00,52.95
1737.50,52.88
1737.00,52.82
1736.50,52.76
1736.00,52.71
1735.50,52.68
1735.00,52.66
1734.50,52.66
1734.00,52.54
1733.50,52.34
1733.00,52.23
1732.50,52.17
1732.00,52.11
1731.50,52.02
1731.00,51.93
1730.50,51.85
1730.00,51.77
1729.50,51.70
1729.00,51.64
1728.50,51.59
1728.00,51.53
1727.50,51.46
1727.00,51.40
1726.50,51.34
1726.00,51.28
1725.50,51.21
1725.00,51.15
1724.50,51.10
1724.00,51.05
1723.50,51.00
1723.00,50.95
1722.50,50.92
1722.00,50.88
1721.50,50.84
1721.00,50.79
1720.50,50.76
1720.00,50.72
1719.50,50.66
1719.00,50.61
1718.50,50.62
1718.00,50.64
1717.50,50.59
1717.00,50.55
1716.50,50.55
1716.00,50.55
1715.50,50.53
1715.00,50.49
1714.50,50.46
1714.00,50.42
1713.50,50.38
1713.00,50.35
1712.50,50.34
1712.00,50.31
1711.50,50.28
1711.00,50.25
1710.50,50.24
1710.00,50.22
1709.50,50.20
1709.00,50.18
1708.50,50.16
1708.00,50.14
1707.50,50.11
1707.00,50.10
1706.50,50.08
1706.00,50.05
1705.50,50.00
1705.00,49.95
1704.50,49.92
1704.00,49.90
1703.50,49.86
1703.00,49.83
1702.50,49.80
1702.00,49.78
1701.50,49.76
1701.00,49.69
1700.50,49.69
1700.00,49.68
1699.50,49.61
1699.00,49.55
1698.50,49.51
1698.00,49.46
1697.50,49.38
1697.00,49.31
1696.50,49.25
1696.00,49.18
1695.50,49.09
1695.00,49.05
1694.50,49.02
1694.00,48.96
1693.50,48.89
1693.00,48.81
1692.50,48.74
1692.00,48.67
1691.50,48.59
1691.00,48.51
1690.50,48.43
1690.00,48.34
1689.50,48.24
1689.00,48.15
1688.50,48.06
1688.00,47.97
1687.50,47.89
1687.00,47.82
1686.50,47.73
1686.00,47.63
1685.50,47.51
1685.00,47.41
1684.50,47.39
1684.00,47.25
1683.50,47.10
1683.00,47.07
1682.50,47.04
1682.00,47.00
1681.50,46.93
1681.00,46.86
1680.50,46.80
1680.00,46.74
1679.50,46.68
1679.00,46.63
1678.50,46.58
1678.00,46.52
1677.50,46.46
1677.00,46.41
1676.50,46.37
1676.00,46.32
1675.50,46.21
1675.00,46.07
1674.50,45.96
1674.00,45.86
1673.50,45.77
1673.00,45.68
1672.50,45.59
1672.00,45.48
1671.50,45.37
1671.00,45.27
1670.50,45.20
1670.00,45.12
1669.50,44.98
1669.00,44.77
1668.50,44.61
1668.00,44.49
1667.50,44.38
1667.00,44.28
1666.50,44.18
1666.00,44.06
1665.50,43.94
1665.00,43.83
1664.50,43.73
1664.00,43.64
1663.50,43.53
1663.00,43.38
1662.50,43.22
1662.00,43.08
1661.50,42.95
1661.00,42.84
1660.50,42.73
1660.00,42.61
1659.50,42.50
1659.00,42.38
1658.50,42.26
1658.00,42.15
1657.50,42.02
1657.00,41.91
1656.50,41.81
1656.00,41.73
1655.50,41.63
1655.00,41.55
1654.50,41.45
1654.00,41.43
1653.50,41.26
1653.00,40.82
1652.50,40.67
1652.00,40.67
1651.50,40.63
1651.00,40.58
1650.50,40.51
1650.00,40.44
1649.50,40.35
1649.00,40.26
1648.50,40.18
1648.00,40.11
1647.50,40.03
1647.00,39.94
1646.50,39.85
1646.00,39.71
1645.50,39.59
1645.00,39.50
1644.50,39.44
1644.00,39.37
1643.50,39.29
1643.00,39.21
1642.50,39.13
1642.00,39.06
1641.50,38.98
1641.00,38.90
1640.50,38.83
1640.00,38.76
1639.50,38.68
1639.00,38.61
1638.50,38.55
1638.00,38.49
1637.50,38.41
1637.00,38.34
1636.50,38.30
1636.00,38.22
1635.50,38.02
1635.00,37.86
1634.50,37.81
1634.00,37.77
1633.50,37.70
1633.00,37.62
1632.50,37.53
1632.00,37.45
1631.50,37.36
1631.00,37.26
1630.50,37.17
1630.00,37.09
1629.50,37.00
1629.00,36.92
1628.50,36.82
1628.00,36.71
1627.50,36.59
1627.00,36.48
1626.50,36.40
1626.00,36.33
1625.50,36.25
1625.00,36.17
1624.50,36.11
1624.00,36.03
1623.50,35.90
1623.00,35.75
1622.50,35.64
1622.00,35.56
1621.50,35.47
1621.00,35.38
1620.50,35.30
1620.00,35.22
1619.50,35.13
1619.00,35.05
1618.50,34.98
1618.00,34.91
1617.50,34.84
1617.00,34.74
1616.50,34.63
1616.00,34.56
1615.50,34.50
1615.00,34.45
1614.50,34.41
1614.00,34.36
1613.50,34.31
1613.00,34.27
1612.50,34.23
1612.00,34.20
1611.50,34.16
1611.00,34.12
1610.50,34.09
1610.00,34.07
1609.50,34.03
1609.00,33.99
1608.50,33.96
1608.00,33.93
1607.50,33.89
1607.00,33.84
1606.50,33.79
1606.00,33.74
1605.50,33.68
1605.00,33.61
1604.50,33.53
1604.00,33.43
1603.50,33.30
1603.00,33.12
1602.50,32.92
1602.00,32.68
1601.50,32.37
1601.00,31.97
1600.50,31.50
1600.00,30.96
1599.50,30.33
1599.00,29.66
1598.50,29.02
1598.00,28.48
1597.50,28.12
1597.00,28.02
1596.50,28.21
1596.00,28.68
1595.50,29.34
1595.00,30.14
1594.50,31.00
1594.00,31.81
1593.50,32.48
1593.00,33.03
1592.50,33.51
1592.00,33.94
1591.50,34.30
1591.00,34.61
1590.50,34.89
1590.00,35.16
1589.50,35.39
1589.00,35.60
1588.50,35.81
1588.00,36.01
1587.50,36.19
1587.00,36.37
1586.50,36.55
1586.00,36.73
1585.50,36.90
1585.00,37.06
1584.50,37.23
1584.00,37.39
1583.50,37.55
1583.00,37.70
1582.50,37.85
1582.00,38.01
1581.50,38.15
1581.00,38.29
1580.50,38.44
1580.00,38.58
1579.50,38.72
1579.00,38.84
1578.50,38.96
1578.00,39.06
1577.50,39.14
1577.00,39.26
1576.50,39.51
1576.00,39.78
1575.50,39.92
1575.00,39.99
1574.50,40.07
1574.00,40.16
1573.50,40.25
1573.00,40.35
1572.50,40.45
1572.00,40.56
1571.50,40.64
1571.00,40.72
1570.50,40.83
1570.00,41.01
1569.50,41.21
1569.00,41.33
1568.50,41.39
1568.00,41.45
1567.50,41.51
1567.00,41.56
1566.50,41.62
1566.00,41.69
1565.50,41.76
1565.00,41.85
1564.50,41.94
1564.00,42.01
1563.50,42.06
1563.00,42.10
1562.50,42.13
1562.00,42.16
1561.50,42.16
1561.00,42.16
1560.50,42.18
1560.00,42.36
1559.50,42.74
1559.00,42.93
1558.50,42.79
1558.00,42.66
1557.50,42.66
1557.00,42.67
1556.50,42.66
1556.00,42.65
1555.50,42.65
1555.00,42.67
1554.50,42.74
1554.00,42.78
1553.50,42.78
1553.00,42.78
1552.50,42.77
1552.00,42.76
1551.50,42.74
1551.00,42.71
1550.50,42.71
1550.00,42.73
1549.50,42.75
1549.00,42.76
1548.50,42.77
1548.00,42.76
1547.50,42.75
1547.00,42.72
1546.50,42.71
1546.00,42.70
1545.50,42.70
1545.00,42.69
1544.50,42.68
1544.00,42.66
1543.50,42.64
1543.00,42.65
1542.50,42.68
1542.00,42.70
1541.50,42.65
1541.00,42.58
1540.50,42.56
1540.00,42.59
1539.50,42.51
1539.00,42.36
1538.50,42.33
1538.00,42.33
1537.50,42.32
1537.00,42.29
1536.50,42.26
1536.00,42.23
1535.50,42.20
1535.00,42.17
1534.50,42.15
1534.00,42.14
1533.50,42.10
1533.00,42.05
1532.50,42.02
1532.00,41.99
1531.50,41.96
1531.00,41.95
1530.50,41.94
1530.00,41.92
1529.50,41.90
1529.00,41.87
1528.50,41.87
1528.00,41.86
1527.50,41.86
1527.00,41.86
1526.50,41.88
1526.00,41.90
1525.50,41.92
1525.00,41.92
1524.50,41.92
1524.00,41.92
1523.50,41.91
1523.00,41.92
1522.50,41.95
1522.00,42.00
1521.50,42.02
1521.00,42.00
1520.50,41.98
1520.00,41.98
1519.50,41.97
1519.00,41.94
1518.50,41.91
1518.00,41.89
1517.50,41.89
1517.00,41.93
1516.50,41.95
1516.00,41.96
1515.50,41.96
1515.00,41.97
1514.50,41.99
1514.00,41.99
1513.50,41.98
1513.00,41.98
1512.50,41.98
1512.00,41.98
1511.50,41.96
1511.00,41.93
1510.50,41.91
1510.00,41.89
1509.50,41.87
1509.00,41.84
1508.50,41.84
1508.00,41.84
1507.50,41.84
1507.00,41.90
1506.50,41.97
1506.00,41.96
1505.50,41.93
1505.00,41.91
1504.50,41.90
1504.00,41.88
1503.50,41.85
1503.00,41.83
1502.50,41.81
1502.00,41.80
1501.50,41.77
1501.00,41.74
1500.50,41.72
1500.00,41.69
1499.50,41.65
1499.00,41.59
1498.50,41.54
1498.00,41.47
1497.50,41.38
1497.00,41.28
1496.50,41.18
1496.00,41.04
1495.50,40.87
1495.00,40.73
1494.50,40.60
1494.00,40.44
1493.50,40.25
1493.00,40.06
1492.50,39.89
1492.00,39.71
1491.50,39.49
1491.00,39.23
1490.50,38.92
1490.00,38.56
1489.50,38.22
1489.00,37.98
1488.50,37.81
1488.00,37.60
1487.50,37.32
1487.00,37.02
1486.50,36.77
1486.00,36.56
1485.50,36.37
1485.00,36.19
1484.50,36.02
1484.00,35.87
1483.50,35.72
1483.00,35.59
1482.50,35.48
1482.00,35.38
1481.50,35.28
1481.00,35.19
1480.50,35.14
1480.00,35.09
1479.50,35.04
1479.00,34.99
1478.50,34.95
1478.00,34.91
1477.50,34.86
1477.00,34.78
1476.50,34.71
1476.00,34.65
1475.50,34.58
1475.00,34.52
1474.50,34.45
1474.00,34.36
1473.50,34.23
1473.00,34.05
1472.50,33.79
1472.00,33.45
1471.50,33.12
1471.00,32.85
1470.50,32.60
1470.00,32.30
1469.50,31.94
1469.00,31.54
1468.50,31.12
1468.00,30.69
1467.50,30.25
1467.00,29.82
1466.50,29.45
1466.00,29.05
1465.50,28.51
1465.00,27.76
1464.50,27.03
1464.00,26.46
1463.50,25.96
1463.00,25.45
1462.50,24.90
1462.00,24.29
1461.50,23.68
1461.00,23.11
1460.50,22.60
1460.00,22.09
1459.50,21.54
1459.00,20.97
1458.50,20.43
1458.00,19.93
1457.50,19.33
1457.00,18.62
1456.50,18.00
1456.00,17.54
1455.50,17.13
1455.00,16.72
1454.50,16.31
1454.00,15.90
1453.50,15.47
1453.00,15.01
1452.50,14.50
1452.00,13.94
1451.50,13.39
1451.00,12.90
1450.50,12.47
1450.00,12.07
1449.50,11.70
1449.00,11.33
1448.50,10.96
1448.00,10.58
1447.50,10.25
1447.00,10.05
1446.50,9.95
1446.00,9.89
1445.50,9.86
1445.00,9.88
1444.50,9.96
1444.00,10.09
1443.50,10.26
1443.00,10.47
1442.50,10.74
1442.00,11.04
1441.50,11.36
1441.00,11.70
1440.50,12.07
1440.00,12.46
1439.50,12.82
1439.00,13.15
1438.50,13.46
1438.00,13.74
1437.50,14.03
1437.00,14.47
1436.50,14.98
1436.00,15.26
1435.50,15.34
1435.00,15.42
1434.50,15.50
1434.00,15.56
1433.50,15.56
1433.00,15.52
1432.50,15.46
1432.00,15.36
1431.50,15.19
1431.00,14.99
1430.50,14.72
1430.00,14.35
1429.50,13.92
1429.00,13.51
1428.50,13.12
1428.00,12.67
1427.50,12.15
1427.00,11.59
1426.50,11.03
1426.00,10.46
1425.50,9.88
1425.00,9.28
1424.50,8.59
1424.00,7.76
1423.50,6.94
1423.00,6.29
1422.50,5.76
1422.00,5.25
1421.50,4.76
1421.00,4.34
1420.50,3.97
1420.00,3.51
1419.50,2.88
1419.00,2.33
1418.50,2.05
1418.00,1.87
1417.50,1.70
1417.00,1.53
1416.50,1.40
1416.00,1.27
1415.50,1.16
1415.00,1.09
1414.50,1.03
1414.00,0.97
1413.50,0.92
1413.00,0.90
1412.50,0.89
1412.00,0.88
1411.50,0.87
1411.00,0.88
1410.50,0.90
1410.00,0.91
1409.50,0.94
1409.00,0.98
1408.50,1.03
1408.00,1.08
1407.50,1.13
1407.00,1.19
1406.50,1.26
1406.00,1.33
1405.50,1.40
1405.00,1.50
1404.50,1.60
1404.00,1.68
1403.50,1.74
1403.00,1.81
1402.50,1.89
1402.00,1.97
1401.50,2.05
1401.00,2.14
1400.50,2.24
1400.00,2.36
1399.50,2.54
1399.00,2.79
1398.50,3.05
1398.00,3.32
1397.50,3.61
1397.00,3.93
1396.50,4.29
1396.00,4.70
1395.50,5.24
1395.00,5.94
1394.50,6.72
1394.00,7.42
1393.50,8.02
1393.00,8.59
1392.50,9.18
1392.00,9.82
1391.50,10.49
1391.00,11.18
1390.50,11.84
1390.00,12.47
1389.50,13.04
1389.00,13.55
1388.50,14.05
1388.00,14.61
1387.50,15.25
1387.00,15.84
1386.50,16.28
1386.00,16.64
1385.50,16.99
1385.00,17.35
1384.50,17.71
1384.00,18.07
1383.50,18.45
1383.00,18.82
1382.50,19.18
1382.00,19.54
1381.50,19.90
1381.00,20.23
1380.50,20.55
1380.00,20.85
1379.50,21.14
1379.00,21.40
1378.50,21.63
1378.00,21.85
1377.50,22.05
1377.00,22.22
1376.50,22.34
1376.00,22.45
1375.50,22.56
1375.00,22.65
1374.50,22.73
1374.00,22.79
1373.50,22.86
1373.00,22.93
1372.50,23.01
1372.00,23.11
1371.50,23.27
1371.00,23.46
1370.50,23.67
1370.00,23.90
1369.50,24.15
1369.00,24.41
1368.50,24.65
1368.00,24.87
1367.50,25.06
1367.00,25.22
1366.50,25.35
1366.00,25.49
1365.50,25.62
1365.00,25.73
1364.50,25.81
1364.00,25.90
1363.50,26.02
1363.00,26.15
1362.50,26.24
1362.00,26.32
1361.50,26.41
1361.00,26.49
1360.50,26.55
1360.00,26.62
1359.50,26.70
1359.00,26.76
1358.50,26.81
1358.00,26.86
1357.50,26.92
1357.00,26.97
1356.50,27.01
1356.00,27.04
1355.50,27.09
1355.00,27.12
1354.50,27.14
1354.00,27.15
1353.50,27.17
1353.00,27.18
1352.50,27.17
1352.00,27.16
1351.50,27.16
1351.00,27.14
1350.50,27.11
1350.00,27.08
1349.50,27.06
1349.00,27.02
1348.50,26.97
1348.00,26.93
1347.50,26.90
1347.00,26.85
1346.50,26.81
1346.00,26.77
1345.50,26.75
1345.00,26.72
1344.50,26.69
1344.00,26.68
1343.50,26.68
1343.00,26.67
1342.50,26.67
1342.00,26.66
1341.50,26.66
1341.00,26.65
1340.50,26.64
1340.00,26.63
1339.50,26.63
1339.00,26.61
1338.50,26.58
1338.00,26.55
1337.50,26.52
1337.00,26.47
1336.50,26.41
1336.00,26.35
1335.50,26.29
1335.00,26.20
1334.50,26.10
1334.00,26.00
1333.50,25.89
1333.00,25.76
1332.50,25.63
1332.00,25.49
1331.50,25.35
1331.00,25.19
1330.50,25.02
1330.00,24.84
1329.50,24.67
1329.00,24.47
1328.50,24.27
1328.00,24.07
1327.50,23.87
1327.00,23.65
1326.50,23.43
1326.00,23.20
1325.50,22.98
1325.00,22.74
1324.50,22.49
1324.00,22.25
1323.50,22.01
1323.00,21.76
1322.50,21.50
1322.00,21.24
1321.50,20.98
1321.00,20.72
1320.50,20.44
1320.00,20.17
1319.50,19.90
1319.00,19.61
1318.50,19.32
1318.00,19.04
1317.50,18.77
1317.00,18.47
1316.50,18.18
1316.00,17.89
1315.50,17.62
1315.00,17.33
1314.50,17.03
1314.00,16.74
1313.50,16.45
1313.00,16.14
1312.50,15.83
1312.00,15.54
1311.50,15.26
1311.00,14.98
1310.50,14.69
1310.00,14.41
1309.50,14.13
1309.00,13.84
1308.50,13.55
1308.00,13.26
1307.50,12.98
1307.00,12.70
1306.50,12.42
1306.00,12.15
1305.50,11.88
1305.00,11.60
1304.50,11.32
1304.00,11.05
1303.50,10.78
1303.00,10.50
1302.50,10.21
1302.00,9.94
1301.50,9.67
1301.00,9.38
1300.50,9.10
1300.00,8.83
1299.50,8.56
1299.00,8.27
1298.50,7.98
1298.00,7.71
1297.50,7.43
1297.00,7.14
1296.50,6.85
1296.00,6.58
1295.50,6.31
1295.00,6.03
1294.50,5.76
1294.00,5.50
1293.50,5.24
1293.00,4.98
1292.50,4.72
1292.00,4.48
1291.50,4.24
1291.00,4.00
1290.50,3.76
1290.00,3.54
1289.50,3.32
1289.00,3.10
1288.50,2.89
1288.00,2.69
1287.50,2.49
1287.00,2.29
1286.50,2.11
1286.00,1.94
1285.50,1.77
1285.00,1.60
1284.50,1.44
1284.00,1.29
1283.50,1.15
1283.00,1.01
1282.50,0.88
1282.00,0.77
1281.50,0.66
1281.00,0.55
1280.50,0.46
1280.00,0.38
1279.50,0.31
1279.00,0.24
1278.50,0.19
1278.00,0.15
1277.50,0.11
1277.00,0.07
1276.50,0.05
1276.00,0.03
1275.50,0.02
1275.00,0.01
1274.50,-0.00
1274.00,0.00
1273.50,0.01
1273.00,0.00
1272.50,0.01
1272.00,0.01
1271.50,0.01
1271.00,0.01
1270.50,0.01
1270.00,0.00
1269.50,0.00
1269.00,0.00
1268.50,0.00
1268.00,0.00
1267.50,0.00
1267.00,0.01
1266.50,0.01
1266.00,0.00
1265.50,0.01
1265.00,0.00
1264.50,0.00
1264.00,0.01
1263.50,0.01
1263.00,0.01
1262.50,0.00
1262.00,0.01
1261.50,0.01
1261.00,0.00
1260.50,0.01
1260.00,0.00
1259.50,0.00
1259.00,0.00
1258.50,0.01
1258.00,0.01
1257.50,0.01
1257.00,0.00
1256.50,0.00
1256.00,0.01
1255.50,0.01
1255.00,0.00
1254.50,0.00
1254.00,0.00
1253.50,0.01
1253.00,0.01
1252.50,0.00
1252.00,0.00
1251.50,0.01
1251.00,0.01
1250.50,0.01
1250.00,0.01
1249.50,0.01
1249.00,0.01
1248.50,0.00
1248.00,0.00
1247.50,0.00
1247.00,0.00
1246.50,0.01
1246.00,0.01
1245.50,0.01
1245.00,0.00
1244.50,0.01
1244.00,0.02
1243.50,0.04
1243.00,0.05
1242.50,0.06
1242.00,0.09
1241.50,0.11
1241.00,0.13
1240.50,0.15
1240.00,0.19
1239.50,0.23
1239.00,0.26
1238.50,0.30
1238.00,0.34
1237.50,0.38
1237.00,0.41
1236.50,0.44
1236.00,0.48
1235.50,0.52
1235.00,0.54
1234.50,0.56
1234.00,0.59
1233.50,0.60
1233.00,0.61
1232.50,0.62
1232.00,0.64
1231.50,0.64
1231.00,0.64
1230.50,0.64
1230.00,0.64
1229.50,0.64
1229.00,0.62
1228.50,0.60
1228.00,0.59
1227.50,0.57
1227.00,0.55
1226.50,0.52
1226.00,0.51
1225.50,0.48
1225.00,0.46
1224.50,0.43
1224.00,0.41
1223.50,0.39
1223.00,0.36
1222.50,0.33
1222.00,0.31
1221.50,0.29
1221.00,0.26
1220.50,0.24
1220.00,0.23
1219.50,0.21
1219.00,0.18
1218.50,0.16
1218.00,0.15
1217.50,0.14
1217.00,0.12
1216.50,0.11
1216.00,0.10
1215.50,0.09
1215.00,0.08
1214.50,0.07
1214.00,0.06
1213.50,0.06
1213.00,0.05
1212.50,0.04
1212.00,0.04
1211.50,0.04
1211.00,0.03
1210.50,0.03
1210.00,0.03
1209.50,0.03
1209.00,0.02
1208.50,0.01
1208.00,0.01
1207.50,0.02
1207.00,0.01
1206.50,0.01
1206.00,0.02
1205.50,0.02
1205.00,0.01
1204.50,0.01
1204.00,0.01
1203.50,0.01
1203.00,0.00
1202.50,0.00
1202.00,0.01
1201.50,0.01
1201.00,0.00
1200.50,0.00
1200.00,0.01
1199.50,0.01
1199.00,0.00
1198.50,0.00
1198.00,0.01
1197.50,0.01
1197.00,0.00
1196.50,0.00
1196.00,0.00
1195.50,0.00
1195.00,0.00
1194.50,0.00
1194.00,0.01
1193.50,0.01
1193.00,0.00
1192.50,0.00
1192.00,0.00
1191.50,0.00
1191.00,0.00
1190.50,0.00
1190.00,0.01
1189.50,0.01
1189.00,0.00
1188.50,0.00
1188.00,0.00
1187.50,0.00
1187.00,0.00
1186.50,0.01
1186.00,0.00
1185.50,0.00
1185.00,0.00
1184.50,0.00
1184.00,0.01
1183.50,0.01
1183.00,0.01
1182.50,0.01
1182.00,0.00
1181.50,0.00
1181.00,0.00
1180.50,0.00
1180.00,0.01
1179.50,0.01
1179.00,0.01
1178.50,0.01
1178.00,0.01
1177.50,0.01
1177.00,0.01
1176.50,0.01
1176.00,0.00
1175.50,0.00
1175.00,0.01
1174.50,0.01
1174.00,0.01
1173.50,0.00
1173.00,0.01
1172.50,0.01
1172.00,0.00
1171.50,0.00
1171.00,0.00
1170.50,0.00
1170.00,0.00
1169.50,0.00
1169.00,0.00
1168.50,0.01
1168.00,0.01
1167.50,0.00
1167.00,0.00
1166.50,0.00
1166.00,0.00
1165.50,0.00
1165.00,0.00
1164.50,0.00
1164.00,0.00
1163.50,0.00
1163.00,0.00
1162.50,0.01
1162.00,0.00
1161.50,0.00
1161.00,0.00
1160.50,0.00
1160.00,0.01
1159.50,0.00
1159.00,0.00
1158.50,0.01
1158.00,0.00
1157.50,0.00
1157.00,0.00
1156.50,0.00
1156.00,0.00
1155.50,0.00
1155.00,0.00
1154.50,0.01
1154.00,0.00
1153.50,0.00
1153.00,0.01
1152.50,0.01
1152.00,0.00
1151.50,0.00
1151.00,0.01
1150.50,0.01
1150.00,0.00
1149.50,0.00
1149.00,0.00
1148.50,0.01
1148.00,0.01
1147.50,0.01
1147.00,0.01
1146.50,0.02
1146.00,0.01
1145.50,0.01
1145.00,0.01
1144.50,0.01
1144.00,0.01
1143.50,0.01
1143.00,0.01
1142.50,0.00
1142.00,0.00
1141.50,0.00
1141.00,0.00
1140.50,0.00
1140.00,0.00
1139.50,0.00
1139.00,0.00
1138.50,0.01
1138.00,0.01
1137.50,0.00
1137.00,0.00
1136.50,0.01
1136.00,0.00
1135.50,0.00
1135.00,0.01
1134.50,0.01
1134.00,0.00
1133.50,0.00
1133.00,0.00
1132.50,0.01
1132.00,0.00
1131.50,0.00
1131.00,0.01
1130.50,0.01
1130.00,0.00
1129.50,0.00
1129.00,0.01
1128.50,0.01
1128.00,0.01
1127.50,0.00
1127.00,0.00
1126.50,0.00
1126.00,0.00
1125.50,0.00
1125.00,0.01
1124.50,0.01
1124.00,0.00
1123.50,0.00
1123.00,0.01
1122.50,0.01
1122.00,0.01
1121.50,0.01
1121.00,0.01
1120.50,0.01
1120.00,0.01
1119.50,0.00
1119.00,0.01
1118.50,0.01
1118.00,0.01
1117.50,0.00
1117.00,0.01
1116.50,0.01
1116.00,0.01
1115.50,0.00
1115.00,0.01
1114.50,0.00
1114.00,0.00
1113.50,0.00
1113.00,0.01
1112.50,0.01
1112.00,0.01
1111.50,0.01
1111.00,0.01
1110.50,0.01
1110.00,0.00
1109.50,0.00
1109.00,0.01
1108.50,0.01
1108.00,0.00
1107.50,0.00
1107.00,0.01
1106.50,0.01
1106.00,0.01
1105.50,0.00
1105.00,0.01
1104.50,0.01
1104.00,0.00
1103.50,0.00
1103.00,0.01
1102.50,0.01
1102.00,0.00
1101.50,0.00
1101.00,0.01
1100.50,0.01
1100.00,0.01
1099.50,0.00
1099.00,0.01
1098.50,0.00
1098.00,0.00
1097.50,0.00
1097.00,0.00
1096.50,0.01
1096.00,0.01
1095.50,0.00
1095.00,0.01
1094.50,0.01
1094.00,0.00
1093.50,0.00
1093.00,0.01
1092.50,0.00
1092.00,0.01
1091.50,0.01
1091.00,0.00
1090.50,0.01
1090.00,0.01
1089.50,0.00
1089.00,0.01
1088.50,0.01
1088.00,0.00
1087.50,0.00
1087.00,0.00
1086.50,0.01
1086.00,0.00
1085.50,0.00
1085.00,0.01
1084.50,0.01
1084.00,0.00
1083.50,0.00
1083.00,0.00
1082.50,0.00
1082.00,0.00
1081.50,0.01
1081.00,0.01
1080.50,0.01
1080.00,0.01
1079.50,0.01
1079.00,0.01
1078.50,0.00
1078.00,0.00
1077.50,0.00
1077.00,0.00
1076.50,0.01
1076.00,0.00
1075.50,0.00
1075.00,0.01
1074.50,0.01
1074.00,0.01
1073.50,0.01
1073.00,0.01
1072.50,0.00
1072.00,0.00
1071.50,0.00
1071.00,0.01
1070.50,0.01
1070.00,0.00
1069.50,0.00
1069.00,0.00
1068.50,0.01
1068.00,0.00
1067.50,0.00
1067.00,0.01
1066.50,0.01
1066.00,0.00
1065.50,0.01
1065.00,0.01
1064.50,0.00
1064.00,0.01
1063.50,0.00
1063.00,0.01
1062.50,0.01
1062.00,0.01
1061.50,0.00
1061.00,0.01
1060.50,0.01
1060.00,0.00
1059.50,0.00
1059.00,0.01
1058.50,0.01
1058.00,0.01
1057.50,0.00
1057.00,0.01
1056.50,0.01
1056.00,0.00
1055.50,0.00
1055.00,0.00
1054.50,0.01
1054.00,0.01
1053.50,0.01
1053.00,0.00
1052.50,0.01
1052.00,0.00
1051.50,0.00
1051.00,0.01
1050.50,0.01
1050.00,0.00
1049.50,0.00
1049.00,0.00
1048.50,0.00
1048.00,0.00
1047.50,0.00
1047.00,0.01
1046.50,0.01
1046.00,0.00
1045.50,0.00
1045.00,0.00
1044.50,0.00
1044.00,0.00
1043.50,0.00
1043.00,0.01
1042.50,0.01
1042.00,0.00
1041.50,0.00
1041.00,0.00
1040.50,0.01
1040.00,0.00
1039.50,0.00
1039.00,0.00
1038.50,0.00
1038.00,0.01
1037.50,0.01
1037.00,0.00
1036.50,0.01
1036.00,0.00
1035.50,0.00
1035.00,0.01
1034.50,0.01
1034.00,0.01
1033.50,0.01
1033.00,0.01
1032.50,0.01
1032.00,0.01
1031.50,0.00
1031.00,0.00
1030.50,0.00
1030.00,0.01
1029.50,0.01
1029.00,0.01
1028.50,0.00
1028.00,0.01
1027.50,0.01
1027.00,0.00
1026.50,0.00
1026.00,0.00
1025.50,0.00
1025.00,0.01
1024.50,0.01
1024.00,0.01
1023.50,0.00
1023.00,0.01
1022.50,0.01
1022.00,0.01
1021.50,0.00
1021.00,0.01
1020.50,0.01
1020.00,0.01
1019.50,0.01
1019.00,0.02
1018.50,0.02
1018.00,0.01
1017.50,0.00
1017.00,0.00
1016.50,0.00
1016.00,0.00
1015.50,0.00
1015.00,0.00
1014.50,0.01
1014.00,0.00
1013.50,0.00
1013.00,0.00
1012.50,0.00
1012.00,0.00
1011.50,0.00
1011.00,0.01
1010.50,0.01
1010.00,0.00
1009.50,0.00
1009.00,0.00
1008.50,0.00
1008.00,0.00
1007.50,0.00
1007.00,0.01
1006.50,0.01
1006.00,0.01
1005.50,0.00
1005.00,0.00
1004.50,0.00
1004.00,0.00
1003.50,0.00
1003.00,0.00
1002.50,0.01
1002.00,0.01
1001.50,0.00
1001.00,0.01
1000.50,0.01
1000.00,0.00
999.50,0.00
999.00,0.01
998.50,0.01
998.00,0.01
997.50,0.01
997.00,0.01
996.50,0.01
996.00,0.01
995.50,0.00
995.00,0.01
994.50,0.00
994.00,0.00
993.50,0.00
993.00,0.00
992.50,0.00
992.00,0.00
991.50,0.01
991.00,0.01
990.50,0.01
990.00,0.01
989.50,0.01
989.00,0.01
988.50,0.02
988.00,0.03
987.50,0.03
987.00,0.04
986.50,0.05
986.00,0.06
985.50,0.07
985.00,0.08
984.50,0.09
984.00,0.10
983.50,0.12
983.00,0.14
982.50,0.17
982.00,0.20
981.50,0.23
981.00,0.26
980.50,0.29
980.00,0.32
979.50,0.36
979.00,0.39
978.50,0.43
978.00,0.48
977.50,0.53
977.00,0.57
976.50,0.63
976.00,0.68
975.50,0.74
975.00,0.80
974.50,0.86
974.00,0.92
973.50,0.98
973.00,1.04
972.50,1.11
972.00,1.17
971.50,1.24
971.00,1.30
970.50,1.37
970.00,1.43
969.50,1.50
969.00,1.56
968.50,1.62
968.00,1.69
967.50,1.75
967.00,1.81
966.50,1.86
966.00,1.92
965.50,1.97
965.00,2.01
964.50,2.06
964.00,2.10
963.50,2.14
963.00,2.18
962.50,2.21
962.00,2.24
961.50,2.26
961.00,2.29
960.50,2.32
960.00,2.35
959.50,2.38
959.00,2.40
958.50,2.43
958.00,2.46
957.50,2.50
957.00,2.55
956.50,2.60
956.00,2.67
955.50,2.75
955.00,2.83
954.50,2.94
954.00,3.06
953.50,3.19
953.00,3.34
952.50,3.50
952.00,3.67
951.50,3.84
951.00,4.01
950.50,4.17
950.00,4.34
949.50,4.50
949.00,4.65
948.50,4.78
948.00,4.91
947.50,5.03
947.00,5.14
946.50,5.24
946.00,5.34
945.50,5.42
945.00,5.49
944.50,5.55
944.00,5.60
943.50,5.65
943.00,5.69
942.50,5.72
942.00,5.74
941.50,5.75
941.00,5.76
940.50,5.75
940.00,5.75
939.50,5.73
939.00,5.71
938.50,5.67
938.00,5.63
937.50,5.58
937.00,5.51
936.50,5.43
936.00,5.35
935.50,5.26
935.00,5.15
934.50,5.03
934.00,4.91
933.50,4.77
933.00,4.62
932.50,4.47
932.00,4.31
931.50,4.15
931.00,3.98
930.50,3.81
930.00,3.65
929.50,3.49
929.00,3.33
928.50,3.17
928.00,3.03
927.50,2.90
927.00,2.77
926.50,2.65
926.00,2.53
925.50,2.42
925.00,2.30
924.50,2.18
924.00,2.06
923.50,1.94
923.00,1.82
922.50,1.69
922.00,1.56
921.50,1.43
921.00,1.29
920.50,1.16
920.00,1.04
919.50,0.93
919.00,0.82
918.50,0.73
918.00,0.64
917.50,0.57
917.00,0.51
916.50,0.45
916.00,0.41
915.50,0.38
915.00,0.35
914.50,0.33
914.00,0.31
913.50,0.30
913.00,0.29
912.50,0.28
912.00,0.28
911.50,0.28
911.00,0.28
910.50,0.28
910.00,0.29
909.50,0.31
909.00,0.32
908.50,0.34
908.00,0.35
907.50,0.37
907.00,0.39
906.50,0.40
906.00,0.42
905.50,0.43
905.00,0.43
904.50,0.43
904.00,0.43
903.50,0.42
903.00,0.41
902.50,0.39
902.00,0.38
901.50,0.36
901.00,0.34
900.50,0.31
900.00,0.29
899.50,0.26
899.00,0.24
898.50,0.21
898.00,0.19
897.50,0.18
897.00,0.16
896.50,0.14
896.00,0.12
895.50,0.11
895.00,0.09
894.50,0.08
894.00,0.07
893.50,0.06
893.00,0.05
892.50,0.04
892.00,0.04
891.50,0.03
891.00,0.02
890.50,0.01
890.00,0.01
889.50,0.01
889.00,0.01
888.50,0.01
888.00,0.01
887.50,0.01
887.00,0.00
886.50,0.00
886.00,0.00
885.50,0.00
885.00,0.00
884.50,0.00
884.00,0.00
883.50,0.00
883.00,0.01
882.50,0.01
882.00,0.01
881.50,0.01
881.00,0.01
880.50,0.01
880.00,0.00
879.50,0.01
879.00,0.01
878.50,0.01
878.00,0.01
877.50,0.01
877.00,0.01
876.50,0.01
876.00,0.01
875.50,0.01
875.00,0.01
874.50,0.01
874.00,0.01
873.50,0.00
873.00,0.01
872.50,0.01
872.00,0.01
871.50,0.01
871.00,0.01
870.50,0.01
870.00,0.01
869.50,0.01
869.00,0.01
868.50,0.00
868.00,0.00
867.50,0.00
867.00,0.01
866.50,0.02
866.00,0.01
865.50,0.01
865.00,0.01
864.50,0.01
864.00,0.01
863.50,0.00
863.00,0.00
862.50,0.00
862.00,0.00
861.50,0.00
861.00,0.01
860.50,0.01
860.00,0.01
859.50,0.00
859.00,0.00
858.50,0.00
858.00,0.00
857.50,0.00
857.00,0.01
856.50,0.01
856.00,0.01
855.50,0.00
855.00,0.01
854.50,0.01
854.00,0.01
853.50,0.01
853.00,0.01
852.50,0.01
852.00,0.01
851.50,0.01
851.00,0.01
850.50,0.02
850.00,0.02
849.50,0.01
849.00,0.02
848.50,0.02
848.00,0.01
847.50,0.00
847.00,0.01
846.50,0.01
846.00,0.00
845.50,0.00
845.00,0.01
844.50,0.01
844.00,0.01
843.50,0.01
843.00,0.01
842.50,0.01
842.00,0.01
841.50,0.01
841.00,0.01
840.50,0.02
840.00,0.02
839.50,0.01
839.00,0.01
838.50,0.02
838.00,0.02
837.50,0.01
837.00,0.02
836.50,0.02
836.00,0.01
835.50,0.01
835.00,0.01
834.50,0.01
834.00,0.01
833.50,0.00
833.00,0.00
832.50,0.01
832.00,0.01
831.50,0.02
831.00,0.02
830.50,0.02
830.00,0.02
829.50,0.02
829.00,0.02
828.50,0.01
828.00,0.01
827.50,0.01
827.00,0.00
826.50,0.01
826.00,0.01
825.50,0.01
825.00,0.01
824.50,0.00
824.00,0.01
823.50,0.01
823.00,0.01
822.50,0.00
822.00,0.01
821.50,0.01
821.00,0.01
820.50,0.01
820.00,0.01
819.50,0.01
819.00,0.02
818.50,0.02
818.00,0.02
817.50,0.01
817.00,0.01
816.50,0.01
816.00,0.01
815.50,0.01
815.00,0.01
814.50,0.01
814.00,0.01
813.50,0.00
813.00,0.01
812.50,0.01
812.00,0.01
811.50,0.00
811.00,0.01
810.50,0.01
810.00,0.01
809.50,0.01
809.00,0.01
808.50,0.01
808.00,0.01
807.50,0.01
807.00,0.01
806.50,0.02
806.00,0.02
805.50,0.02
805.00,0.02
804.50,0.02
804.00,0.01
803.50,0.00
803.00,0.00
802.50,0.01
802.00,0.00
801.50,0.00
801.00,0.00
800.50,0.00
800.00,0.01
799.50,0.01
799.00,0.01
798.50,0.01
798.00,0.01
797.50,0.01
797.00,0.01
796.50,0.01
796.00,0.01
795.50,0.01
795.00,0.01
794.50,0.01
794.00,0.01
793.50,0.01
793.00,0.01
792.50,0.02
792.00,0.01
791.50,0.01
791.00,0.01
790.50,0.01
790.00,0.01
789.50,0.01
789.00,0.01
788.50,0.01
788.00,0.01
787.50,0.01
787.00,0.01
786.50,0.01
786.00,0.01
785.50,0.00
785.00,0.00
784.50,0.00
784.00,0.00
783.50,0.01
783.00,0.01
782.50,0.01
782.00,0.01
781.50,0.01
781.00,0.01
780.50,0.01
780.00,0.01
779.50,0.01
779.00,0.01
778.50,0.01
778.00,0.01
777.50,0.01
777.00,0.01
776.50,0.01
776.00,0.01
775.50,0.01
775.00,0.01
774.50,0.01
774.00,0.00
773.50,0.01
773.00,0.01
772.50,0.00
772.00,0.00
771.50,0.01
771.00,0.01
770.50,0.01
770.00,0.01
769.50,0.01
769.00,0.01
768.50,0.01
768.00,0.01
767.50,0.01
767.00,0.01
766.50,0.01
766.00,0.00
765.50,0.00
765.00,0.01
764.50,0.01
764.00,0.01
763.50,0.01
763.00,0.00
762.50,0.00
762.00,0.01
761.50,0.01
761.00,0.00
760.50,0.00
760.00,0.00
759.50,0.01
759.00,0.00
758.50,0.00
758.00,0.01
757.50,0.01
757.00,0.01
756.50,0.00
756.00,0.01
755.50,0.01
755.00,0.00
754.50,0.00
754.00,0.01
753.50,0.00
753.00,0.01
752.50,0.01
752.00,0.02
751.50,0.04
751.00,0.06
750.50,0.08
750.00,0.11
749.50,0.16
749.00,0.21
748.50,0.26
748.00,0.33
747.50,0.40
747.00,0.46
746.50,0.53
746.00,0.61
745.50,0.69
745.00,0.77
744.50,0.85
744.00,0.92
743.50,0.99
743.00,1.06
742.50,1.12
742.00,1.19
741.50,1.26
741.00,1.33
740.50,1.40
740.00,1.48
739.50,1.55
739.00,1.62
738.50,1.69
738.00,1.76
737.50,1.83
737.00,1.90
736.50,1.97
736.00,2.03
735.50,2.10
735.00,2.16
734.50,2.21
734.00,2.26
733.50,2.31
733.00,2.35
732.50,2.38
732.00,2.41
731.50,2.43
731.00,2.46
730.50,2.48
730.00,2.49
729.50,2.51
729.00,2.53
728.50,2.53
728.00,2.54
727.50,2.53
727.00,2.53
726.50,2.52
726.00,2.51
725.50,2.51
725.00,2.49
724.50,2.48
724.00,2.46
723.50,2.43
723.00,2.40
722.50,2.37
722.00,2.33
721.50,2.29
721.00,2.25
720.50,2.20
720.00,2.15
719.50,2.09
719.00,2.02
718.50,1.94
718.00,1.86
717.50,1.78
717.00,1.69
716.50,1.59
716.00,1.48
715.50,1.37
715.00,1.27
714.50,1.15
714.00,1.04
713.50,0.94
713.00,0.83
712.50,0.72
712.00,0.62
711.50,0.53
711.00,0.46
710.50,0.39
710.00,0.33
709.50,0.28
709.00,0.24
708.50,0.21
708.00,0.19
707.50,0.17
707.00,0.15
706.50,0.13
706.00,0.12
705.50,0.12
705.00,0.11
704.50,0.10
704.00,0.09
703.50,0.09
703.00,0.09
702.50,0.09
702.00,0.09
701.50,0.09
701.00,0.10
700.50,0.11
700.00,0.11
699.50,0.12
699.00,0.12
698.50,0.13
698.00,0.13
697.50,0.13
697.00,0.13
696.50,0.13
696.00,0.12
695.50,0.12
695.00,0.12
694.50,0.12
694.00,0.12
693.50,0.12
693.00,0.12
692.50,0.11
692.00,0.11
691.50,0.11
691.00,0.11
690.50,0.11
690.00,0.11
689.50,0.11
689.00,0.11
688.50,0.11
688.00,0.12
687.50,0.13
687.00,0.13
686.50,0.14
686.00,0.15
685.50,0.17
685.00,0.20
684.50,0.22
684.00,0.24
683.50,0.27
683.00,0.29
682.50,0.33
682.00,0.36
681.50,0.40
681.00,0.43
680.50,0.47
680.00,0.51
679.50,0.56
679.00,0.61
678.50,0.65
678.00,0.70
677.50,0.74
677.00,0.78
676.50,0.82
676.00,0.85
675.50,0.89
675.00,0.93
674.50,0.96
674.00,0.99
673.50,1.02
673.00,1.04
672.50,1.06
672.00,1.08
671.50,1.10
671.00,1.11
670.50,1.12
670.00,1.12
669.50,1.12
669.00,1.13
668.50,1.13
668.00,1.12
667.50,1.11
667.00,1.09
666.50,1.08
666.00,1.05
665.50,1.02
665.00,0.99
664.50,0.95
664.00,0.91
663.50,0.87
663.00,0.83
662.50,0.79
662.00,0.75
661.50,0.72
661.00,0.73
660.50,0.77
660.00,0.87
659.50,1.06
659.00,1.35
658.50,1.78
658.00,2.34
657.50,3.03
657.00,3.80
656.50,4.60
656.00,5.40
655.50,6.17
655.00,6.87
654.50,7.49
654.00,8.04
653.50,8.53
653.00,8.93
652.50,9.27
652.00,9.56
651.50,9.82
651.00,10.03
650.50,10.20
650.00,10.35
649.50,10.47
649.00,10.56
648.50,10.61
648.00,10.64
647.50,10.66
647.00,10.65
646.50,10.63
646.00,10.59
645.50,10.55
645.00,10.50
644.50,10.44
644.00,10.37
643.50,10.29
643.00,10.20
642.50,10.09
642.00,9.98
641.50,9.86
641.00,9.73
640.50,9.60
640.00,9.46
639.50,9.33
639.00,9.19
638.50,9.05
638.00,8.91
637.50,8.78
637.00,8.66
636.50,8.54
636.00,8.44
635.50,8.34
635.00,8.24
634.50,8.14
634.00,8.05
633.50,7.97
633.00,7.90
632.50,7.85
632.00,7.79
631.50,7.73
631.00,7.67
630.50,7.62
630.00,7.57
629.50,7.54
629.00,7.51
628.50,7.48
628.00,7.45
627.50,7.43
627.00,7.41
626.50,7.40
626.00,7.39
625.50,7.39
625.00,7.40
624.50,7.41
624.00,7.43
623.50,7.45
623.00,7.47
622.50,7.48
622.00,7.50
621.50,7.52
621.00,7.56
620.50,7.59
620.00,7.61
619.50,7.64
619.00,7.66
618.50,7.68
618.00,7.69
617.50,7.69
617.00,7.69
616.50,7.68
616.00,7.67
615.50,7.66
615.00,7.65
614.50,7.64
614.00,7.63
613.50,7.62
613.00,7.60
612.50,7.58
612.00,7.54
611.50,7.50
611.00,7.44
610.50,7.35
610.00,7.23
609.50,7.09
609.00,6.92
608.50,6.72
608.00,6.46
607.50,6.18
607.00,5.87
606.50,5.52
606.00,5.15
605.50,4.77
605.00,4.37
604.50,3.98
604.00,3.62
603.50,3.29
603.00,3.02
602.50,2.79
602.00,2.62
601.50,2.52
601.00,2.47
600.50,2.44
600.00,2.44
599.50,2.45
599.00,2.50
598.50,2.58
598.00,2.69
597.50,2.80
597.00,2.92
596.50,3.04
596.00,3.16
595.50,3.28
595.00,3.39
594.50,3.48
594.00,3.55
593.50,3.61
593.00,3.66
592.50,3.69
592.00,3.69
591.50,3.69
591.00,3.67
590.50,3.64
590.00,3.59
589.50,3.52
589.00,3.44
588.50,3.34
588.00,3.23
587.50,3.12
587.00,3.01
586.50,2.90
586.00,2.78
585.50,2.65
585.00,2.52
584.50,2.39
584.00,2.27
583.50,2.15
583.00,2.04
582.50,1.93
582.00,1.82
581.50,1.72
581.00,1.62
580.50,1.55
580.00,1.48
579.50,1.42
579.00,1.36
578.50,1.30
578.00,1.24
577.50,1.19
577.00,1.15
576.50,1.11
576.00,1.06
575.50,1.01
575.00,0.98
574.50,0.95
574.00,0.92
573.50,0.90
573.00,0.88
572.50,0.86
572.00,0.84
571.50,0.82
571.00,0.80
570.50,0.78
570.00,0.76
569.50,0.74
569.00,0.72
568.50,0.70
568.00,0.69
567.50,0.68
567.00,0.68
566.50,0.67
566.00,0.66
565.50,0.66
565.00,0.66
564.50,0.66
564.00,0.64
563.50,0.62
563.00,0.61
562.50,0.61
562.00,0.60
561.50,0.59
561.00,0.59
560.50,0.58
560.00,0.56
559.50,0.55
559.00,0.55
558.50,0.54
558.00,0.51
557.50,0.49
557.00,0.48
556.50,0.47
556.00,0.46
555.50,0.45
555.00,0.45
554.50,0.46
554.00,0.45
553.50,0.44
553.00,0.43
552.50,0.43
552.00,0.42
551.50,0.41
551.00,0.40
550.50,0.40
550.00,0.40
549.50,0.39
549.00,0.38
548.50,0.38
548.00,0.38
547.50,0.37
547.00,0.37
546.50,0.37
546.00,0.37
545.50,0.37
545.00,0.37
544.50,0.37
544.00,0.36
543.50,0.34
543.00,0.34
542.50,0.34
542.00,0.34
541.50,0.33
541.00,0.33
540.50,0.32
540.00,0.31
539.50,0.31
539.00,0.31
538.50,0.30
538.00,0.28
537.50,0.27
537.00,0.27
536.50,0.27
536.00,0.28
535.50,0.27
535.00,0.27
534.50,0.27
534.00,0.26
533.50,0.27
533.00,0.28
532.50,0.28
532.00,0.27
531.50,0.27
531.00,0.27
530.50,0.27
530.00,0.25
529.50,0.23
529.00,0.22
528.50,0.21
528.00,0.20
527.50,0.19
527.00,0.18
526.50,0.17
526.00,0.16
525.50,0.15
525.00,0.15
524.50,0.15
524.00,0.14
523.50,0.13
523.00,0.14
522.50,0.15
522.00,0.15
521.50,0.15
521.00,0.17
520.50,0.19
520.00,0.19
519.50,0.18
519.00,0.17
518.50,0.15
518.00,0.13
517.50,0.11
517.00,0.11
516.50,0.12
516.00,0.11
515.50,0.09
515.00,0.10
514.50,0.11
514.00,0.10
513.50,0.09
513.00,0.10
512.50,0.11
512.00,0.11
511.50,0.13
511.00,0.15
510.50,0.16
510.00,0.14
509.50,0.11
509.00,0.09
508.50,0.08
508.00,0.08
507.50,0.11
507.00,0.14
506.50,0.16
506.00,0.15
505.50,0.13
505.00,0.12
504.50,0.12
504.00,0.11
503.50,0.09
503.00,0.10
502.50,0.11
502.00,0.09
501.50,0.06
501.00,0.05
500.50,0.04
500.00,0.05
499.50,0.07
499.00,0.09
498.50,0.10
498.00,0.09
497.50,0.08
497.00,0.10
496.50,0.12
496.00,0.12
495.50,0.10
495.00,0.10
494.50,0.11
494.00,0.10
493.50,0.07
493.00,0.07
492.50,0.08
492.00,0.07
491.50,0.06
491.00,0.06
490.50,0.06
490.00,0.04
489.50,0.04
489.00,0.05
488.50,0.06
488.00,0.07
487.50,0.07
487.00,0.08
486.50,0.08
486.00,0.06
485.50,0.04
485.00,0.04
484.50,0.05
484.00,0.05
483.50,0.04
483.00,0.03
482.50,0.03
482.00,0.03
481.50,0.03
481.00,0.03
480.50,0.02
480.00,0.04
479.50,0.06
479.00,0.05
478.50,0.05
478.00,0.05
477.50,0.04
477.00,0.05
476.50,0.08
476.00,0.09
475.50,0.08
475.00,0.08
474.50,0.09
474.00,0.06
473.50,0.03
473.00,0.04
472.50,0.06
472.00,0.07
471.50,0.04
471.00,0.03
470.50,0.05
470.00,0.05
469.50,0.04
469.00,0.05
468.50,0.05
468.00,0.03
467.50,0.02
467.00,0.04
466.50,0.06
466.00,0.06
465.50,0.04
465.00,0.05
464.50,0.08
464.00,0.08
463.50,0.06
463.00,0.04
462.50,0.05
462.00,0.02
461.50,0.03
461.00,0.04
460.50,0.06
460.00,0.06
459.50,0.05
459.00,0.05
458.50,0.11
458.00,0.14
457.50,0.12
457.00,0.10
456.50,0.08
456.00,0.06
455.50,0.06
455.00,0.05
454.50,0.02
454.00,0.04
453.50,0.11
453.00,0.11
452.50,0.06
452.00,0.02
451.50,0.05
451.00,0.08
450.50,0.07
450.00,0.07
449.50,0.08
449.00,0.06
448.50,0.00
448.00,0.03
447.50,0.06
447.00,0.11
446.50,0.15
446.00,0.13
445.50,0.08
445.00,0.06
444.50,0.06
444.00,0.07
443.50,0.10
443.00,0.09
442.50,0.06
442.00,0.05
441.50,0.05
441.00,0.05
440.50,0.03
440.00,0.04
439.50,0.01
439.00,0.05
438.50,0.11
438.00,0.10
437.50,0.10
437.00,0.10
436.50,0.07
436.00,0.04
435.50,0.05
435.00,0.05
434.50,0.07
434.00,0.09
433.50,0.08
433.00,0.09
432.50,0.14
432.00,0.18
431.50,0.17
431.00,0.10
430.50,0.03
430.00,0.01
429.50,0.05
429.00,0.03
428.50,0.05
428.00,0.04
427.50,0.04
427.00,0.09
426.50,0.07
426.00,0.04
425.50,0.02
425.00,0.03
424.50,0.09
424.00,0.18
423.50,0.22
423.00,0.22
422.50,0.21
422.00,0.19
421.50,0.25
421.00,0.32
420.50,0.38
420.00,0.52
419.50,0.74
419.00,0.85
418.50,0.75
418.00,0.57
417.50,0.39
417.00,0.25
416.50,0.23
416.00,0.17
415.50,0.07
415.00,0.04
414.50,0.03
414.00,0.07
413.50,0.13
413.00,0.11
412.50,0.05
412.00,0.09
411.50,0.15
411.00,0.10
410.50,0.08
410.00,0.07
409.50,0.06
409.00,0.09
408.50,0.04
408.00,0.06
407.50,0.14
407.00,0.11
406.50,0.03
406.00,0.09
405.50,0.25
405.00,0.36
404.50,0.44
404.00,0.50
403.50,0.50
403.00,0.40
402.50,0.29
402.00,0.29
401.50,0.30
401.00,0.29
400.50,0.27
400.00,0.28
