Created as New Dataset,Sample 160 By irlear Date Thursday, June 06 2019
cm-1,%T
4000.00,79.27
3999.50,79.29
3999.00,79.31
3998.50,79.34
3998.00,79.36
3997.50,79.38
3997.00,79.40
3996.50,79.42
3996.00,79.44
3995.50,79.46
3995.00,79.49
3994.50,79.51
3994.00,79.53
3993.50,79.55
3993.00,79.57
3992.50,79.59
3992.00,79.61
3991.50,79.64
3991.00,79.66
3990.50,79.69
3990.00,79.71
3989.50,79.72
3989.00,79.74
3988.50,79.77
3988.00,79.79
3987.50,79.81
3987.00,79.84
3986.50,79.86
3986.00,79.89
3985.50,79.92
3985.00,79.95
3984.50,79.97
3984.00,79.99
3983.50,80.00
3983.00,80.01
3982.50,80.03
3982.00,80.05
3981.50,80.07
3981.00,80.09
3980.50,80.11
3980.00,80.13
3979.50,80.15
3979.00,80.18
3978.50,80.20
3978.00,80.23
3977.50,80.25
3977.00,80.27
3976.50,80.29
3976.00,80.31
3975.50,80.32
3975.00,80.34
3974.50,80.36
3974.00,80.38
3973.50,80.40
3973.00,80.43
3972.50,80.45
3972.00,80.47
3971.50,80.48
3971.00,80.50
3970.50,80.52
3970.00,80.54
3969.50,80.56
3969.00,80.58
3968.50,80.60
3968.00,80.62
3967.50,80.63
3967.00,80.65
3966.50,80.67
3966.00,80.69
3965.50,80.71
3965.00,80.72
3964.50,80.74
3964.00,80.76
3963.50,80.78
3963.00,80.80
3962.50,80.82
3962.00,80.84
3961.50,80.86
3961.00,80.87
3960.50,80.88
3960.00,80.89
3959.50,80.90
3959.00,80.92
3958.50,80.93
3958.00,80.94
3957.50,80.96
3957.00,80.97
3956.50,80.98
3956.00,80.99
3955.50,81.00
3955.00,81.01
3954.50,81.02
3954.00,81.04
3953.50,81.05
3953.00,81.05
3952.50,81.05
3952.00,81.05
3951.50,81.05
3951.00,81.06
3950.50,81.08
3950.00,81.10
3949.50,81.11
3949.00,81.12
3948.50,81.13
3948.00,81.15
3947.50,81.15
3947.00,81.15
3946.50,81.15
3946.00,81.15
3945.50,81.15
3945.00,81.15
3944.50,81.15
3944.00,81.15
3943.50,81.17
3943.00,81.20
3942.50,81.21
3942.00,81.23
3941.50,81.24
3941.00,81.25
3940.50,81.26
3940.00,81.27
3939.50,81.29
3939.00,81.30
3938.50,81.31
3938.00,81.32
3937.50,81.32
3937.00,81.33
3936.50,81.34
3936.00,81.35
3935.50,81.37
3935.00,81.37
3934.50,81.37
3934.00,81.38
3933.50,81.39
3933.00,81.40
3932.50,81.41
3932.00,81.40
3931.50,81.40
3931.00,81.41
3930.50,81.42
3930.00,81.43
3929.50,81.43
3929.00,81.43
3928.50,81.42
3928.00,81.41
3927.50,81.39
3927.00,81.37
3926.50,81.36
3926.00,81.36
3925.50,81.38
3925.00,81.41
3924.50,81.43
3924.00,81.44
3923.50,81.43
3923.00,81.42
3922.50,81.40
3922.00,81.38
3921.50,81.37
3921.00,81.37
3920.50,81.38
3920.00,81.38
3919.50,81.37
3919.00,81.37
3918.50,81.37
3918.00,81.38
3917.50,81.39
3917.00,81.38
3916.50,81.36
3916.00,81.34
3915.50,81.32
3915.00,81.31
3914.50,81.30
3914.00,81.29
3913.50,81.28
3913.00,81.26
3912.50,81.25
3912.00,81.23
3911.50,81.22
3911.00,81.21
3910.50,81.20
3910.00,81.19
3909.50,81.17
3909.00,81.15
3908.50,81.12
3908.00,81.09
3907.50,81.07
3907.00,81.04
3906.50,81.03
3906.00,81.04
3905.50,81.07
3905.00,81.08
3904.50,81.07
3904.00,81.04
3903.50,81.01
3903.00,81.00
3902.50,80.98
3902.00,80.95
3901.50,80.90
3901.00,80.86
3900.50,80.84
3900.00,80.83
3899.50,80.83
3899.00,80.81
3898.50,80.79
3898.00,80.77
3897.50,80.76
3897.00,80.73
3896.50,80.71
3896.00,80.69
3895.50,80.67
3895.00,80.66
3894.50,80.65
3894.00,80.63
3893.50,80.62
3893.00,80.62
3892.50,80.63
3892.00,80.65
3891.50,80.64
3891.00,80.61
3890.50,80.57
3890.00,80.55
3889.50,80.54
3889.00,80.53
3888.50,80.51
3888.00,80.48
3887.50,80.46
3887.00,80.46
3886.50,80.48
3886.00,80.51
3885.50,80.49
3885.00,80.47
3884.50,80.46
3884.00,80.46
3883.50,80.44
3883.00,80.41
3882.50,80.36
3882.00,80.32
3881.50,80.31
3881.00,80.32
3880.50,80.33
3880.00,80.33
3879.50,80.33
3879.00,80.33
3878.50,80.33
3878.00,80.32
3877.50,80.30
3877.00,80.27
3876.50,80.23
3876.00,80.18
3875.50,80.15
3875.00,80.15
3874.50,80.17
3874.00,80.17
3873.50,80.15
3873.00,80.13
3872.50,80.11
3872.00,80.08
3871.50,80.07
3871.00,80.08
3870.50,80.10
3870.00,80.08
3869.50,80.01
3869.00,79.95
3868.50,79.92
3868.00,79.88
3867.50,79.85
3867.00,79.81
3866.50,79.77
3866.00,79.76
3865.50,79.75
3865.00,79.72
3864.50,79.66
3864.00,79.59
3863.50,79.54
3863.00,79.50
3862.50,79.44
3862.00,79.37
3861.50,79.30
3861.00,79.24
3860.50,79.18
3860.00,79.11
3859.50,79.04
3859.00,78.96
3858.50,78.88
3858.00,78.80
3857.50,78.71
3857.00,78.61
3856.50,78.53
3856.00,78.46
3855.50,78.41
3855.00,78.31
3854.50,78.18
3854.00,78.07
3853.50,77.98
3853.00,77.90
3852.50,77.79
3852.00,77.66
3851.50,77.54
3851.00,77.46
3850.50,77.38
3850.00,77.28
3849.50,77.16
3849.00,77.02
3848.50,76.90
3848.00,76.78
3847.50,76.66
3847.00,76.54
3846.50,76.41
3846.00,76.28
3845.50,76.14
3845.00,75.99
3844.50,75.84
3844.00,75.68
3843.50,75.53
3843.00,75.39
3842.50,75.28
3842.00,75.16
3841.50,75.04
3841.00,74.91
3840.50,74.77
3840.00,74.65
3839.50,74.54
3839.00,74.44
3838.50,74.32
3838.00,74.16
3837.50,74.02
3837.00,73.93
3836.50,73.87
3836.00,73.80
3835.50,73.69
3835.00,73.55
3834.50,73.41
3834.00,73.31
3833.50,73.23
3833.00,73.17
3832.50,73.10
3832.00,73.02
3831.50,72.94
3831.00,72.87
3830.50,72.81
3830.00,72.76
3829.50,72.70
3829.00,72.63
3828.50,72.56
3828.00,72.51
3827.50,72.46
3827.00,72.42
3826.50,72.38
3826.00,72.34
3825.50,72.31
3825.00,72.27
3824.50,72.23
3824.00,72.18
3823.50,72.12
3823.00,72.05
3822.50,71.99
3822.00,71.99
3821.50,72.04
3821.00,72.03
3820.50,71.98
3820.00,71.94
3819.50,71.90
3819.00,71.84
3818.50,71.78
3818.00,71.71
3817.50,71.65
3817.00,71.60
3816.50,71.55
3816.00,71.47
3815.50,71.39
3815.00,71.34
3814.50,71.30
3814.00,71.25
3813.50,71.18
3813.00,71.10
3812.50,71.01
3812.00,70.93
3811.50,70.85
3811.00,70.76
3810.50,70.68
3810.00,70.59
3809.50,70.49
3809.00,70.40
3808.50,70.32
3808.00,70.24
3807.50,70.16
3807.00,70.06
3806.50,69.96
3806.00,69.88
3805.50,69.81
3805.00,69.73
3804.50,69.63
3804.00,69.52
3803.50,69.43
3803.00,69.35
3802.50,69.28
3802.00,69.20
3801.50,69.06
3801.00,68.93
3800.50,68.85
3800.00,68.78
3799.50,68.71
3799.00,68.62
3798.50,68.51
3798.00,68.39
3797.50,68.27
3797.00,68.13
3796.50,67.99
3796.00,67.85
3795.50,67.73
3795.00,67.62
3794.50,67.49
3794.00,67.35
3793.50,67.19
3793.00,67.03
3792.50,66.86
3792.00,66.69
3791.50,66.52
3791.00,66.34
3790.50,66.14
3790.00,65.95
3789.50,65.75
3789.00,65.55
3788.50,65.35
3788.00,65.15
3787.50,64.94
3787.00,64.74
3786.50,64.53
3786.00,64.32
3785.50,64.11
3785.00,63.88
3784.50,63.65
3784.00,63.43
3783.50,63.24
3783.00,63.05
3782.50,62.86
3782.00,62.67
3781.50,62.47
3781.00,62.28
3780.50,62.09
3780.00,61.89
3779.50,61.68
3779.00,61.48
3778.50,61.32
3778.00,61.16
3777.50,61.01
3777.00,60.84
3776.50,60.67
3776.00,60.51
3775.50,60.35
3775.00,60.19
3774.50,60.03
3774.00,59.88
3773.50,59.74
3773.00,59.60
3772.50,59.47
3772.00,59.34
3771.50,59.22
3771.00,59.10
3770.50,58.97
3770.00,58.83
3769.50,58.70
3769.00,58.60
3768.50,58.51
3768.00,58.43
3767.50,58.34
3767.00,58.25
3766.50,58.17
3766.00,58.10
3765.50,58.03
3765.00,57.98
3764.50,57.94
3764.00,57.90
3763.50,57.86
3763.00,57.82
3762.50,57.78
3762.00,57.73
3761.50,57.69
3761.00,57.65
3760.50,57.64
3760.00,57.65
3759.50,57.67
3759.00,57.67
3758.50,57.66
3758.00,57.66
3757.50,57.67
3757.00,57.69
3756.50,57.72
3756.00,57.75
3755.50,57.78
3755.00,57.79
3754.50,57.79
3754.00,57.80
3753.50,57.81
3753.00,57.88
3752.50,58.01
3752.00,58.15
3751.50,58.24
3751.00,58.32
3750.50,58.41
3750.00,58.53
3749.50,58.64
3749.00,58.72
3748.50,58.79
3748.00,58.86
3747.50,58.92
3747.00,58.97
3746.50,59.00
3746.00,59.00
3745.50,59.03
3745.00,59.21
3744.50,59.49
3744.00,59.69
3743.50,59.81
3743.00,59.90
3742.50,59.99
3742.00,60.09
3741.50,60.21
3741.00,60.32
3740.50,60.40
3740.00,60.46
3739.50,60.52
3739.00,60.57
3738.50,60.62
3738.00,60.66
3737.50,60.68
3737.00,60.67
3736.50,60.66
3736.00,60.64
3735.50,60.59
3735.00,60.53
3734.50,60.48
3734.00,60.44
3733.50,60.41
3733.00,60.34
3732.50,60.21
3732.00,60.04
3731.50,59.88
3731.00,59.75
3730.50,59.62
3730.00,59.47
3729.50,59.31
3729.00,59.14
3728.50,58.97
3728.00,58.79
3727.50,58.58
3727.00,58.34
3726.50,58.09
3726.00,57.84
3725.50,57.60
3725.00,57.39
3724.50,57.19
3724.00,57.00
3723.50,56.80
3723.00,56.55
3722.50,56.28
3722.00,56.02
3721.50,55.82
3721.00,55.66
3720.50,55.51
3720.00,55.33
3719.50,55.12
3719.00,54.90
3718.50,54.70
3718.00,54.52
3717.50,54.34
3717.00,54.15
3716.50,53.96
3716.00,53.75
3715.50,53.53
3715.00,53.31
3714.50,53.10
3714.00,52.91
3713.50,52.69
3713.00,52.44
3712.50,52.11
3712.00,51.79
3711.50,51.54
3711.00,51.36
3710.50,51.17
3710.00,50.91
3709.50,50.62
3709.00,50.36
3708.50,50.16
3708.00,50.00
3707.50,49.83
3707.00,49.64
3706.50,49.45
3706.00,49.26
3705.50,49.09
3705.00,48.93
3704.50,48.79
3704.00,48.65
3703.50,48.52
3703.00,48.39
3702.50,48.27
3702.00,48.17
3701.50,48.10
3701.00,48.07
3700.50,48.06
3700.00,48.05
3699.50,48.05
3699.00,48.06
3698.50,48.08
3698.00,48.12
3697.50,48.18
3697.00,48.25
3696.50,48.33
3696.00,48.42
3695.50,48.51
3695.00,48.60
3694.50,48.70
3694.00,48.80
3693.50,48.90
3693.00,49.00
3692.50,49.11
3692.00,49.27
3691.50,49.49
3691.00,49.69
3690.50,49.84
3690.00,49.96
3689.50,50.11
3689.00,50.31
3688.50,50.51
3688.00,50.63
3687.50,50.72
3687.00,50.79
3686.50,50.88
3686.00,50.97
3685.50,51.07
3685.00,51.17
3684.50,51.26
3684.00,51.34
3683.50,51.40
3683.00,51.47
3682.50,51.52
3682.00,51.57
3681.50,51.61
3681.00,51.64
3680.50,51.66
3680.00,51.69
3679.50,51.71
3679.00,51.72
3678.50,51.72
3678.00,51.71
3677.50,51.68
3677.00,51.64
3676.50,51.60
3676.00,51.55
3675.50,51.44
3675.00,51.32
3674.50,51.26
3674.00,51.23
3673.50,51.19
3673.00,51.14
3672.50,51.08
3672.00,50.98
3671.50,50.85
3671.00,50.69
3670.50,50.52
3670.00,50.39
3669.50,50.26
3669.00,50.12
3668.50,49.98
3668.00,49.86
3667.50,49.75
3667.00,49.63
3666.50,49.49
3666.00,49.33
3665.50,49.16
3665.00,48.99
3664.50,48.82
3664.00,48.65
3663.50,48.49
3663.00,48.32
3662.50,48.15
3662.00,47.98
3661.50,47.82
3661.00,47.64
3660.50,47.46
3660.00,47.27
3659.50,47.08
3659.00,46.89
3658.50,46.73
3658.00,46.57
3657.50,46.38
3657.00,46.15
3656.50,45.87
3656.00,45.62
3655.50,45.45
3655.00,45.33
3654.50,45.21
3654.00,45.08
3653.50,44.94
3653.00,44.80
3652.50,44.67
3652.00,44.53
3651.50,44.39
3651.00,44.24
3650.50,44.09
3650.00,43.93
3649.50,43.78
3649.00,43.66
3648.50,43.56
3648.00,43.45
3647.50,43.33
3647.00,43.23
3646.50,43.17
3646.00,43.16
3645.50,43.15
3645.00,43.13
3644.50,43.10
3644.00,43.07
3643.50,43.04
3643.00,43.02
3642.50,43.00
3642.00,42.99
3641.50,42.99
3641.00,43.00
3640.50,43.01
3640.00,43.04
3639.50,43.07
3639.00,43.11
3638.50,43.15
3638.00,43.20
3637.50,43.26
3637.00,43.31
3636.50,43.38
3636.00,43.44
3635.50,43.50
3635.00,43.57
3634.50,43.65
3634.00,43.74
3633.50,43.83
3633.00,43.92
3632.50,44.01
3632.00,44.10
3631.50,44.18
3631.00,44.25
3630.50,44.33
3630.00,44.41
3629.50,44.50
3629.00,44.58
3628.50,44.64
3628.00,44.72
3627.50,44.80
3627.00,44.87
3626.50,44.94
3626.00,45.00
3625.50,45.05
3625.00,45.10
3624.50,45.15
3624.00,45.18
3623.50,45.22
3623.00,45.25
3622.50,45.28
3622.00,45.30
3621.50,45.33
3621.00,45.34
3620.50,45.33
3620.00,45.31
3619.50,45.29
3619.00,45.28
3618.50,45.27
3618.00,45.26
3617.50,45.25
3617.00,45.25
3616.50,45.27
3616.00,45.27
3615.50,45.26
3615.00,45.21
3614.50,45.17
3614.00,45.14
3613.50,45.10
3613.00,45.04
3612.50,44.96
3612.00,44.91
3611.50,44.90
3611.00,44.91
3610.50,44.90
3610.00,44.85
3609.50,44.75
3609.00,44.66
3608.50,44.59
3608.00,44.54
3607.50,44.49
3607.00,44.42
3606.50,44.36
3606.00,44.33
3605.50,44.30
3605.00,44.26
3604.50,44.21
3604.00,44.15
3603.50,44.09
3603.00,44.03
3602.50,43.97
3602.00,43.91
3601.50,43.85
3601.00,43.78
3600.50,43.72
3600.00,43.67
3599.50,43.61
3599.00,43.54
3598.50,43.46
3598.00,43.39
3597.50,43.33
3597.00,43.29
3596.50,43.23
3596.00,43.16
3595.50,43.09
3595.00,43.04
3594.50,43.01
3594.00,42.99
3593.50,42.95
3593.00,42.91
3592.50,42.87
3592.00,42.86
3591.50,42.84
3591.00,42.84
3590.50,42.83
3590.00,42.82
3589.50,42.80
3589.00,42.75
3588.50,42.71
3588.00,42.68
3587.50,42.67
3587.00,42.63
3586.50,42.59
3586.00,42.58
3585.50,42.59
3585.00,42.62
3584.50,42.65
3584.00,42.69
3583.50,42.75
3583.00,42.83
3582.50,42.91
3582.00,42.99
3581.50,43.07
3581.00,43.14
3580.50,43.20
3580.00,43.26
3579.50,43.31
3579.00,43.37
3578.50,43.44
3578.00,43.50
3577.50,43.55
3577.00,43.60
3576.50,43.65
3576.00,43.70
3575.50,43.75
3575.00,43.80
3574.50,43.85
3574.00,43.89
3573.50,43.93
3573.00,43.98
3572.50,44.03
3572.00,44.09
3571.50,44.15
3571.00,44.20
3570.50,44.26
3570.00,44.31
3569.50,44.36
3569.00,44.41
3568.50,44.43
3568.00,44.46
3567.50,44.50
3567.00,44.54
3566.50,44.56
3566.00,44.59
3565.50,44.64
3565.00,44.71
3564.50,44.78
3564.00,44.83
3563.50,44.88
3563.00,44.92
3562.50,44.96
3562.00,45.01
3561.50,45.04
3561.00,45.07
3560.50,45.08
3560.00,45.09
3559.50,45.11
3559.00,45.15
3558.50,45.18
3558.00,45.21
3557.50,45.23
3557.00,45.24
3556.50,45.26
3556.00,45.28
3555.50,45.30
3555.00,45.32
3554.50,45.33
3554.00,45.34
3553.50,45.35
3553.00,45.36
3552.50,45.36
3552.00,45.34
3551.50,45.34
3551.00,45.34
3550.50,45.35
3550.00,45.36
3549.50,45.37
3549.00,45.38
3548.50,45.39
3548.00,45.39
3547.50,45.38
3547.00,45.37
3546.50,45.36
3546.00,45.35
3545.50,45.34
3545.00,45.32
3544.50,45.30
3544.00,45.30
3543.50,45.29
3543.00,45.28
3542.50,45.26
3542.00,45.24
3541.50,45.23
3541.00,45.21
3540.50,45.19
3540.00,45.18
3539.50,45.17
3539.00,45.16
3538.50,45.16
3538.00,45.17
3537.50,45.17
3537.00,45.16
3536.50,45.12
3536.00,45.09
3535.50,45.07
3535.00,45.06
3534.50,45.06
3534.00,45.05
3533.50,45.04
3533.00,45.04
3532.50,45.04
3532.00,45.03
3531.50,45.02
3531.00,45.01
3530.50,45.01
3530.00,45.01
3529.50,45.01
3529.00,45.00
3528.50,45.00
3528.00,44.99
3527.50,44.98
3527.00,44.98
3526.50,44.98
3526.00,44.98
3525.50,45.00
3525.00,45.02
3524.50,45.02
3524.00,45.02
3523.50,45.00
3523.00,44.97
3522.50,44.95
3522.00,44.94
3521.50,44.95
3521.00,44.96
3520.50,44.97
3520.00,44.97
3519.50,44.98
3519.00,44.98
3518.50,44.99
3518.00,44.99
3517.50,45.00
3517.00,45.01
3516.50,45.02
3516.00,45.03
3515.50,45.05
3515.00,45.07
3514.50,45.09
3514.00,45.10
3513.50,45.11
3513.00,45.11
3512.50,45.12
3512.00,45.12
3511.50,45.14
3511.00,45.15
3510.50,45.17
3510.00,45.17
3509.50,45.16
3509.00,45.15
3508.50,45.16
3508.00,45.19
3507.50,45.22
3507.00,45.24
3506.50,45.26
3506.00,45.28
3505.50,45.31
3505.00,45.33
3504.50,45.35
3504.00,45.37
3503.50,45.38
3503.00,45.38
3502.50,45.37
3502.00,45.37
3501.50,45.38
3501.00,45.39
3500.50,45.41
3500.00,45.43
3499.50,45.45
3499.00,45.47
3498.50,45.49
3498.00,45.52
3497.50,45.53
3497.00,45.54
3496.50,45.55
3496.00,45.55
3495.50,45.57
3495.00,45.58
3494.50,45.59
3494.00,45.60
3493.50,45.62
3493.00,45.63
3492.50,45.65
3492.00,45.66
3491.50,45.67
3491.00,45.69
3490.50,45.71
3490.00,45.74
3489.50,45.76
3489.00,45.79
3488.50,45.80
3488.00,45.81
3487.50,45.83
3487.00,45.84
3486.50,45.86
3486.00,45.87
3485.50,45.88
3485.00,45.90
3484.50,45.92
3484.00,45.94
3483.50,45.97
3483.00,45.99
3482.50,46.00
3482.00,46.02
3481.50,46.04
3481.00,46.06
3480.50,46.09
3480.00,46.10
3479.50,46.12
3479.00,46.13
3478.50,46.14
3478.00,46.16
3477.50,46.17
3477.00,46.20
3476.50,46.22
3476.00,46.25
3475.50,46.26
3475.00,46.27
3474.50,46.29
3474.00,46.30
3473.50,46.33
3473.00,46.35
3472.50,46.38
3472.00,46.41
3471.50,46.43
3471.00,46.46
3470.50,46.49
3470.00,46.52
3469.50,46.54
3469.00,46.57
3468.50,46.60
3468.00,46.62
3467.50,46.64
3467.00,46.66
3466.50,46.67
3466.00,46.68
3465.50,46.70
3465.00,46.73
3464.50,46.75
3464.00,46.78
3463.50,46.80
3463.00,46.82
3462.50,46.85
3462.00,46.87
3461.50,46.90
3461.00,46.93
3460.50,46.96
3460.00,46.98
3459.50,47.00
3459.00,47.02
3458.50,47.04
3458.00,47.06
3457.50,47.09
3457.00,47.12
3456.50,47.14
3456.00,47.17
3455.50,47.19
3455.00,47.22
3454.50,47.25
3454.00,47.28
3453.50,47.30
3453.00,47.33
3452.50,47.36
3452.00,47.39
3451.50,47.42
3451.00,47.45
3450.50,47.48
3450.00,47.51
3449.50,47.55
3449.00,47.60
3448.50,47.65
3448.00,47.68
3447.50,47.69
3447.00,47.69
3446.50,47.70
3446.00,47.73
3445.50,47.77
3445.00,47.81
3444.50,47.84
3444.00,47.88
3443.50,47.91
3443.00,47.94
3442.50,47.96
3442.00,47.98
3441.50,48.01
3441.00,48.04
3440.50,48.08
3440.00,48.11
3439.50,48.15
3439.00,48.19
3438.50,48.23
3438.00,48.26
3437.50,48.30
3437.00,48.33
3436.50,48.36
3436.00,48.39
3435.50,48.41
3435.00,48.44
3434.50,48.47
3434.00,48.50
3433.50,48.53
3433.00,48.56
3432.50,48.59
3432.00,48.62
3431.50,48.65
3431.00,48.68
3430.50,48.71
3430.00,48.74
3429.50,48.77
3429.00,48.80
3428.50,48.82
3428.00,48.84
3427.50,48.86
3427.00,48.89
3426.50,48.91
3426.00,48.94
3425.50,48.97
3425.00,49.00
3424.50,49.02
3424.00,49.05
3423.50,49.08
3423.00,49.11
3422.50,49.15
3422.00,49.18
3421.50,49.21
3421.00,49.24
3420.50,49.25
3420.00,49.27
3419.50,49.29
3419.00,49.32
3418.50,49.35
3418.00,49.37
3417.50,49.40
3417.00,49.43
3416.50,49.46
3416.00,49.49
3415.50,49.52
3415.00,49.55
3414.50,49.59
3414.00,49.62
3413.50,49.65
3413.00,49.68
3412.50,49.70
3412.00,49.73
3411.50,49.75
3411.00,49.78
3410.50,49.82
3410.00,49.85
3409.50,49.88
3409.00,49.91
3408.50,49.94
3408.00,49.96
3407.50,49.99
3407.00,50.02
3406.50,50.04
3406.00,50.07
3405.50,50.11
3405.00,50.14
3404.50,50.18
3404.00,50.22
3403.50,50.26
3403.00,50.30
3402.50,50.34
3402.00,50.37
3401.50,50.40
3401.00,50.44
3400.50,50.47
3400.00,50.50
3399.50,50.53
3399.00,50.57
3398.50,50.60
3398.00,50.63
3397.50,50.65
3397.00,50.68
3396.50,50.71
3396.00,50.75
3395.50,50.79
3395.00,50.83
3394.50,50.87
3394.00,50.91
3393.50,50.94
3393.00,50.97
3392.50,51.00
3392.00,51.03
3391.50,51.06
3391.00,51.09
3390.50,51.11
3390.00,51.14
3389.50,51.17
3389.00,51.19
3388.50,51.22
3388.00,51.25
3387.50,51.29
3387.00,51.32
3386.50,51.35
3386.00,51.39
3385.50,51.42
3385.00,51.45
3384.50,51.47
3384.00,51.50
3383.50,51.53
3383.00,51.57
3382.50,51.60
3382.00,51.64
3381.50,51.68
3381.00,51.71
3380.50,51.74
3380.00,51.77
3379.50,51.80
3379.00,51.83
3378.50,51.86
3378.00,51.90
3377.50,51.93
3377.00,51.96
3376.50,52.00
3376.00,52.02
3375.50,52.05
3375.00,52.08
3374.50,52.11
3374.00,52.14
3373.50,52.17
3373.00,52.21
3372.50,52.25
3372.00,52.29
3371.50,52.32
3371.00,52.36
3370.50,52.40
3370.00,52.43
3369.50,52.47
3369.00,52.50
3368.50,52.53
3368.00,52.56
3367.50,52.59
3367.00,52.62
3366.50,52.65
3366.00,52.67
3365.50,52.69
3365.00,52.72
3364.50,52.74
3364.00,52.77
3363.50,52.81
3363.00,52.84
3362.50,52.88
3362.00,52.91
3361.50,52.94
3361.00,52.97
3360.50,53.00
3360.00,53.03
3359.50,53.05
3359.00,53.08
3358.50,53.10
3358.00,53.13
3357.50,53.16
3357.00,53.19
3356.50,53.23
3356.00,53.26
3355.50,53.29
3355.00,53.32
3354.50,53.35
3354.00,53.38
3353.50,53.42
3353.00,53.45
3352.50,53.49
3352.00,53.53
3351.50,53.57
3351.00,53.61
3350.50,53.64
3350.00,53.67
3349.50,53.70
3349.00,53.73
3348.50,53.76
3348.00,53.79
3347.50,53.83
3347.00,53.87
3346.50,53.91
3346.00,53.95
3345.50,53.99
3345.00,54.04
3344.50,54.08
3344.00,54.13
3343.50,54.17
3343.00,54.21
3342.50,54.25
3342.00,54.29
3341.50,54.33
3341.00,54.37
3340.50,54.42
3340.00,54.47
3339.50,54.51
3339.00,54.56
3338.50,54.60
3338.00,54.65
3337.50,54.69
3337.00,54.72
3336.50,54.76
3336.00,54.79
3335.50,54.83
3335.00,54.87
3334.50,54.91
3334.00,54.95
3333.50,54.99
3333.00,55.03
3332.50,55.07
3332.00,55.11
3331.50,55.15
3331.00,55.20
3330.50,55.24
3330.00,55.27
3329.50,55.31
3329.00,55.35
3328.50,55.39
3328.00,55.44
3327.50,55.48
3327.00,55.52
3326.50,55.56
3326.00,55.60
3325.50,55.63
3325.00,55.67
3324.50,55.70
3324.00,55.73
3323.50,55.77
3323.00,55.80
3322.50,55.84
3322.00,55.88
3321.50,55.91
3321.00,55.95
3320.50,55.99
3320.00,56.03
3319.50,56.07
3319.00,56.12
3318.50,56.16
3318.00,56.20
3317.50,56.24
3317.00,56.29
3316.50,56.33
3316.00,56.38
3315.50,56.43
3315.00,56.47
3314.50,56.52
3314.00,56.57
3313.50,56.61
3313.00,56.65
3312.50,56.70
3312.00,56.75
3311.50,56.79
3311.00,56.84
3310.50,56.89
3310.00,56.94
3309.50,56.99
3309.00,57.03
3308.50,57.07
3308.00,57.11
3307.50,57.15
3307.00,57.19
3306.50,57.23
3306.00,57.27
3305.50,57.32
3305.00,57.36
3304.50,57.39
3304.00,57.43
3303.50,57.46
3303.00,57.50
3302.50,57.53
3302.00,57.56
3301.50,57.60
3301.00,57.63
3300.50,57.67
3300.00,57.70
3299.50,57.74
3299.00,57.78
3298.50,57.82
3298.00,57.85
3297.50,57.89
3297.00,57.92
3296.50,57.95
3296.00,57.98
3295.50,58.01
3295.00,58.04
3294.50,58.07
3294.00,58.10
3293.50,58.14
3293.00,58.17
3292.50,58.20
3292.00,58.22
3291.50,58.25
3291.00,58.27
3290.50,58.30
3290.00,58.32
3289.50,58.35
3289.00,58.38
3288.50,58.40
3288.00,58.43
3287.50,58.46
3287.00,58.48
3286.50,58.51
3286.00,58.54
3285.50,58.57
3285.00,58.60
3284.50,58.62
3284.00,58.65
3283.50,58.67
3283.00,58.70
3282.50,58.72
3282.00,58.75
3281.50,58.78
3281.00,58.81
3280.50,58.83
3280.00,58.86
3279.50,58.88
3279.00,58.91
3278.50,58.93
3278.00,58.96
3277.50,58.99
3277.00,59.02
3276.50,59.04
3276.00,59.06
3275.50,59.09
3275.00,59.11
3274.50,59.14
3274.00,59.16
3273.50,59.18
3273.00,59.20
3272.50,59.22
3272.00,59.24
3271.50,59.26
3271.00,59.28
3270.50,59.30
3270.00,59.31
3269.50,59.33
3269.00,59.34
3268.50,59.36
3268.00,59.37
3267.50,59.39
3267.00,59.40
3266.50,59.42
3266.00,59.43
3265.50,59.45
3265.00,59.47
3264.50,59.48
3264.00,59.49
3263.50,59.51
3263.00,59.52
3262.50,59.53
3262.00,59.54
3261.50,59.56
3261.00,59.57
3260.50,59.58
3260.00,59.59
3259.50,59.60
3259.00,59.62
3258.50,59.63
3258.00,59.65
3257.50,59.66
3257.00,59.67
3256.50,59.68
3256.00,59.70
3255.50,59.71
3255.00,59.72
3254.50,59.72
3254.00,59.73
3253.50,59.73
3253.00,59.74
3252.50,59.75
3252.00,59.77
3251.50,59.78
3251.00,59.79
3250.50,59.80
3250.00,59.81
3249.50,59.82
3249.00,59.84
3248.50,59.85
3248.00,59.86
3247.50,59.87
3247.00,59.88
3246.50,59.89
3246.00,59.90
3245.50,59.91
3245.00,59.92
3244.50,59.92
3244.00,59.92
3243.50,59.93
3243.00,59.94
3242.50,59.94
3242.00,59.95
3241.50,59.96
3241.00,59.96
3240.50,59.97
3240.00,59.97
3239.50,59.98
3239.00,59.98
3238.50,59.99
3238.00,59.99
3237.50,60.00
3237.00,60.00
3236.50,60.00
3236.00,60.00
3235.50,60.01
3235.00,60.01
3234.50,60.02
3234.00,60.02
3233.50,60.02
3233.00,60.01
3232.50,60.01
3232.00,60.00
3231.50,60.00
3231.00,60.00
3230.50,60.00
3230.00,60.00
3229.50,60.00
3229.00,60.00
3228.50,60.00
3228.00,59.99
3227.50,59.99
3227.00,59.99
3226.50,59.99
3226.00,59.99
3225.50,59.99
3225.00,59.99
3224.50,59.99
3224.00,59.99
3223.50,60.00
3223.00,60.00
3222.50,60.01
3222.00,60.01
3221.50,60.01
3221.00,60.02
3220.50,60.03
3220.00,60.04
3219.50,60.04
3219.00,60.04
3218.50,60.04
3218.00,60.05
3217.50,60.05
3217.00,60.06
3216.50,60.06
3216.00,60.07
3215.50,60.08
3215.00,60.08
3214.50,60.08
3214.00,60.08
3213.50,60.08
3213.00,60.08
3212.50,60.08
3212.00,60.08
3211.50,60.08
3211.00,60.08
3210.50,60.08
3210.00,60.08
3209.50,60.07
3209.00,60.07
3208.50,60.06
3208.00,60.06
3207.50,60.05
3207.00,60.05
3206.50,60.04
3206.00,60.03
3205.50,60.02
3205.00,60.01
3204.50,60.00
3204.00,59.99
3203.50,59.99
3203.00,59.98
3202.50,59.96
3202.00,59.95
3201.50,59.93
3201.00,59.92
3200.50,59.90
3200.00,59.89
3199.50,59.87
3199.00,59.86
3198.50,59.84
3198.00,59.82
3197.50,59.80
3197.00,59.78
3196.50,59.76
3196.00,59.74
3195.50,59.71
3195.00,59.69
3194.50,59.66
3194.00,59.63
3193.50,59.60
3193.00,59.56
3192.50,59.53
3192.00,59.49
3191.50,59.45
3191.00,59.42
3190.50,59.38
3190.00,59.33
3189.50,59.29
3189.00,59.25
3188.50,59.20
3188.00,59.16
3187.50,59.13
3187.00,59.11
3186.50,59.09
3186.00,59.08
3185.50,59.07
3185.00,59.08
3184.50,59.09
3184.00,59.11
3183.50,59.14
3183.00,59.17
3182.50,59.20
3182.00,59.24
3181.50,59.27
3181.00,59.31
3180.50,59.34
3180.00,59.37
3179.50,59.40
3179.00,59.43
3178.50,59.45
3178.00,59.46
3177.50,59.47
3177.00,59.48
3176.50,59.49
3176.00,59.49
3175.50,59.49
3175.00,59.48
3174.50,59.48
3174.00,59.47
3173.50,59.46
3173.00,59.45
3172.50,59.43
3172.00,59.41
3171.50,59.39
3171.00,59.37
3170.50,59.35
3170.00,59.32
3169.50,59.30
3169.00,59.27
3168.50,59.24
3168.00,59.21
3167.50,59.17
3167.00,59.14
3166.50,59.10
3166.00,59.06
3165.50,59.01
3165.00,58.97
3164.50,58.93
3164.00,58.88
3163.50,58.84
3163.00,58.79
3162.50,58.74
3162.00,58.69
3161.50,58.64
3161.00,58.58
3160.50,58.53
3160.00,58.47
3159.50,58.42
3159.00,58.36
3158.50,58.30
3158.00,58.23
3157.50,58.17
3157.00,58.11
3156.50,58.05
3156.00,57.98
3155.50,57.91
3155.00,57.85
3154.50,57.78
3154.00,57.71
3153.50,57.64
3153.00,57.56
3152.50,57.49
3152.00,57.40
3151.50,57.32
3151.00,57.23
3150.50,57.14
3150.00,57.05
3149.50,56.96
3149.00,56.88
3148.50,56.79
3148.00,56.69
3147.50,56.60
3147.00,56.51
3146.50,56.41
3146.00,56.31
3145.50,56.20
3145.00,56.10
3144.50,55.99
3144.00,55.88
3143.50,55.77
3143.00,55.66
3142.50,55.54
3142.00,55.43
3141.50,55.31
3141.00,55.19
3140.50,55.07
3140.00,54.94
3139.50,54.81
3139.00,54.68
3138.50,54.54
3138.00,54.39
3137.50,54.25
3137.00,54.10
3136.50,53.95
3136.00,53.80
3135.50,53.66
3135.00,53.51
3134.50,53.36
3134.00,53.21
3133.50,53.06
3133.00,52.90
3132.50,52.74
3132.00,52.58
3131.50,52.43
3131.00,52.27
3130.50,52.12
3130.00,51.95
3129.50,51.79
3129.00,51.63
3128.50,51.47
3128.00,51.32
3127.50,51.16
3127.00,51.01
3126.50,50.85
3126.00,50.70
3125.50,50.55
3125.00,50.40
3124.50,50.26
3124.00,50.12
3123.50,49.98
3123.00,49.85
3122.50,49.72
3122.00,49.59
3121.50,49.47
3121.00,49.34
3120.50,49.23
3120.00,49.11
3119.50,48.99
3119.00,48.88
3118.50,48.77
3118.00,48.67
3117.50,48.57
3117.00,48.48
3116.50,48.39
3116.00,48.31
3115.50,48.22
3115.00,48.14
3114.50,48.06
3114.00,47.98
3113.50,47.91
3113.00,47.85
3112.50,47.79
3112.00,47.73
3111.50,47.68
3111.00,47.63
3110.50,47.59
3110.00,47.56
3109.50,47.53
3109.00,47.50
3108.50,47.46
3108.00,47.43
3107.50,47.40
3107.00,47.38
3106.50,47.35
3106.00,47.33
3105.50,47.32
3105.00,47.31
3104.50,47.30
3104.00,47.29
3103.50,47.28
3103.00,47.28
3102.50,47.27
3102.00,47.28
3101.50,47.28
3101.00,47.28
3100.50,47.28
3100.00,47.28
3099.50,47.27
3099.00,47.26
3098.50,47.26
3098.00,47.25
3097.50,47.25
3097.00,47.25
3096.50,47.24
3096.00,47.24
3095.50,47.23
3095.00,47.23
3094.50,47.22
3094.00,47.21
3093.50,47.20
3093.00,47.19
3092.50,47.18
3092.00,47.17
3091.50,47.16
3091.00,47.15
3090.50,47.13
3090.00,47.10
3089.50,47.07
3089.00,47.04
3088.50,47.01
3088.00,46.98
3087.50,46.95
3087.00,46.92
3086.50,46.88
3086.00,46.84
3085.50,46.80
3085.00,46.76
3084.50,46.71
3084.00,46.66
3083.50,46.60
3083.00,46.55
3082.50,46.50
3082.00,46.44
3081.50,46.37
3081.00,46.31
3080.50,46.24
3080.00,46.17
3079.50,46.10
3079.00,46.02
3078.50,45.94
3078.00,45.86
3077.50,45.77
3077.00,45.68
3076.50,45.58
3076.00,45.48
3075.50,45.38
3075.00,45.27
3074.50,45.16
3074.00,45.05
3073.50,44.93
3073.00,44.81
3072.50,44.68
3072.00,44.55
3071.50,44.41
3071.00,44.26
3070.50,44.11
3070.00,43.96
3069.50,43.80
3069.00,43.63
3068.50,43.46
3068.00,43.27
3067.50,43.07
3067.00,42.85
3066.50,42.62
3066.00,42.38
3065.50,42.13
3065.00,41.87
3064.50,41.59
3064.00,41.29
3063.50,40.98
3063.00,40.66
3062.50,40.33
3062.00,39.98
3061.50,39.62
3061.00,39.24
3060.50,38.86
3060.00,38.46
3059.50,38.07
3059.00,37.68
3058.50,37.29
3058.00,36.91
3057.50,36.54
3057.00,36.19
3056.50,35.85
3056.00,35.55
3055.50,35.29
3055.00,35.08
3054.50,34.90
3054.00,34.78
3053.50,34.71
3053.00,34.70
3052.50,34.76
3052.00,34.88
3051.50,35.06
3051.00,35.30
3050.50,35.59
3050.00,35.93
3049.50,36.31
3049.00,36.72
3048.50,37.15
3048.00,37.57
3047.50,37.99
3047.00,38.40
3046.50,38.79
3046.00,39.15
3045.50,39.47
3045.00,39.77
3044.50,40.03
3044.00,40.27
3043.50,40.48
3043.00,40.67
3042.50,40.83
3042.00,40.98
3041.50,41.10
3041.00,41.22
3040.50,41.31
3040.00,41.39
3039.50,41.46
3039.00,41.51
3038.50,41.56
3038.00,41.61
3037.50,41.65
3037.00,41.68
3036.50,41.71
3036.00,41.73
3035.50,41.74
3035.00,41.74
3034.50,41.73
3034.00,41.71
3033.50,41.68
3033.00,41.64
3032.50,41.59
3032.00,41.54
3031.50,41.48
3031.00,41.41
3030.50,41.32
3030.00,41.23
3029.50,41.12
3029.00,41.01
3028.50,40.88
3028.00,40.75
3027.50,40.61
3027.00,40.46
3026.50,40.29
3026.00,40.12
3025.50,39.93
3025.00,39.72
3024.50,39.50
3024.00,39.26
3023.50,39.01
3023.00,38.74
3022.50,38.47
3022.00,38.19
3021.50,37.90
3021.00,37.61
3020.50,37.30
3020.00,36.99
3019.50,36.69
3019.00,36.38
3018.50,36.09
3018.00,35.80
3017.50,35.53
3017.00,35.27
3016.50,35.02
3016.00,34.78
3015.50,34.56
3015.00,34.36
3014.50,34.16
3014.00,33.98
3013.50,33.80
3013.00,33.62
3012.50,33.44
3012.00,33.26
3011.50,33.07
3011.00,32.86
3010.50,32.65
3010.00,32.41
3009.50,32.16
3009.00,31.90
3008.50,31.62
3008.00,31.31
3007.50,30.99
3007.00,30.66
3006.50,30.30
3006.00,29.92
3005.50,29.53
3005.00,29.12
3004.50,28.69
3004.00,28.24
3003.50,27.77
3003.00,27.29
3002.50,26.79
3002.00,26.28
3001.50,25.75
3001.00,25.21
3000.50,24.65
3000.00,24.07
2999.50,23.49
2999.00,22.90
2998.50,22.28
2998.00,21.65
2997.50,21.01
2997.00,20.35
2996.50,19.68
2996.00,19.00
2995.50,18.31
2995.00,17.61
2994.50,16.90
2994.00,16.18
2993.50,15.46
2993.00,14.74
2992.50,14.01
2992.00,13.27
2991.50,12.53
2991.00,11.80
2990.50,11.07
2990.00,10.34
2989.50,9.62
2989.00,8.92
2988.50,8.22
2988.00,7.54
2987.50,6.88
2987.00,6.24
2986.50,5.62
2986.00,5.02
2985.50,4.46
2985.00,3.93
2984.50,3.43
2984.00,2.97
2983.50,2.54
2983.00,2.16
2982.50,1.81
2982.00,1.50
2981.50,1.22
2981.00,0.98
2980.50,0.77
2980.00,0.59
2979.50,0.44
2979.00,0.32
2978.50,0.22
2978.00,0.14
2977.50,0.08
2977.00,0.04
2976.50,0.01
2976.00,-0.00
2975.50,-0.01
2975.00,-0.01
2974.50,0.00
2974.00,0.01
2973.50,0.02
2973.00,0.03
2972.50,0.04
2972.00,0.05
2971.50,0.06
2971.00,0.06
2970.50,0.07
2970.00,0.07
2969.50,0.07
2969.00,0.07
2968.50,0.07
2968.00,0.08
2967.50,0.08
2967.00,0.08
2966.50,0.08
2966.00,0.08
2965.50,0.07
2965.00,0.07
2964.50,0.06
2964.00,0.06
2963.50,0.05
2963.00,0.05
2962.50,0.05
2962.00,0.06
2961.50,0.06
2961.00,0.07
2960.50,0.08
2960.00,0.08
2959.50,0.08
2959.00,0.08
2958.50,0.08
2958.00,0.08
2957.50,0.08
2957.00,0.07
2956.50,0.07
2956.00,0.08
2955.50,0.07
2955.00,0.06
2954.50,0.06
2954.00,0.05
2953.50,0.03
2953.00,0.02
2952.50,0.02
2952.00,0.02
2951.50,0.03
2951.00,0.03
2950.50,0.04
2950.00,0.06
2949.50,0.10
2949.00,0.15
2948.50,0.21
2948.00,0.30
2947.50,0.40
2947.00,0.52
2946.50,0.65
2946.00,0.80
2945.50,0.98
2945.00,1.19
2944.50,1.41
2944.00,1.66
2943.50,1.93
2943.00,2.22
2942.50,2.52
2942.00,2.84
2941.50,3.18
2941.00,3.55
2940.50,3.92
2940.00,4.31
2939.50,4.72
2939.00,5.14
2938.50,5.57
2938.00,6.00
2937.50,6.44
2937.00,6.88
2936.50,7.32
2936.00,7.76
2935.50,8.20
2935.00,8.64
2934.50,9.07
2934.00,9.49
2933.50,9.91
2933.00,10.32
2932.50,10.71
2932.00,11.10
2931.50,11.47
2931.00,11.84
2930.50,12.18
2930.00,12.51
2929.50,12.81
2929.00,13.09
2928.50,13.35
2928.00,13.59
2927.50,13.80
2927.00,14.00
2926.50,14.16
2926.00,14.30
2925.50,14.41
2925.00,14.49
2924.50,14.54
2924.00,14.56
2923.50,14.55
2923.00,14.51
2922.50,14.44
2922.00,14.33
2921.50,14.19
2921.00,14.02
2920.50,13.81
2920.00,13.57
2919.50,13.30
2919.00,12.99
2918.50,12.65
2918.00,12.27
2917.50,11.86
2917.00,11.43
2916.50,10.95
2916.00,10.46
2915.50,9.94
2915.00,9.41
2914.50,8.87
2914.00,8.31
2913.50,7.76
2913.00,7.20
2912.50,6.66
2912.00,6.13
2911.50,5.62
2911.00,5.15
2910.50,4.70
2910.00,4.29
2909.50,3.92
2909.00,3.59
2908.50,3.30
2908.00,3.05
2907.50,2.85
2907.00,2.68
2906.50,2.55
2906.00,2.46
2905.50,2.41
2905.00,2.40
2904.50,2.42
2904.00,2.46
2903.50,2.55
2903.00,2.67
2902.50,2.83
2902.00,3.02
2901.50,3.25
2901.00,3.53
2900.50,3.83
2900.00,4.18
2899.50,4.58
2899.00,5.01
2898.50,5.49
2898.00,6.00
2897.50,6.56
2897.00,7.15
2896.50,7.78
2896.00,8.43
2895.50,9.11
2895.00,9.82
2894.50,10.53
2894.00,11.27
2893.50,12.01
2893.00,12.76
2892.50,13.52
2892.00,14.27
2891.50,15.02
2891.00,15.77
2890.50,16.51
2890.00,17.24
2889.50,17.96
2889.00,18.67
2888.50,19.37
2888.00,20.05
2887.50,20.72
2887.00,21.37
2886.50,22.01
2886.00,22.64
2885.50,23.25
2885.00,23.85
2884.50,24.44
2884.00,25.01
2883.50,25.57
2883.00,26.12
2882.50,26.66
2882.00,27.18
2881.50,27.70
2881.00,28.20
2880.50,28.69
2880.00,29.17
2879.50,29.65
2879.00,30.11
2878.50,30.57
2878.00,31.02
2877.50,31.47
2877.00,31.91
2876.50,32.35
2876.00,32.78
2875.50,33.20
2875.00,33.63
2874.50,34.05
2874.00,34.46
2873.50,34.88
2873.00,35.29
2872.50,35.69
2872.00,36.08
2871.50,36.47
2871.00,36.86
2870.50,37.23
2870.00,37.60
2869.50,37.96
2869.00,38.31
2868.50,38.65
2868.00,38.97
2867.50,39.28
2867.00,39.59
2866.50,39.88
2866.00,40.16
2865.50,40.43
2865.00,40.68
2864.50,40.93
2864.00,41.16
2863.50,41.38
2863.00,41.60
2862.50,41.80
2862.00,41.99
2861.50,42.17
2861.00,42.34
2860.50,42.50
2860.00,42.65
2859.50,42.79
2859.00,42.93
2858.50,43.06
2858.00,43.18
2857.50,43.30
2857.00,43.41
2856.50,43.51
2856.00,43.61
2855.50,43.70
2855.00,43.79
2854.50,43.88
2854.00,43.96
2853.50,44.04
2853.00,44.12
2852.50,44.19
2852.00,44.26
2851.50,44.32
2851.00,44.39
2850.50,44.45
2850.00,44.52
2849.50,44.58
2849.00,44.64
2848.50,44.70
2848.00,44.76
2847.50,44.82
2847.00,44.88
2846.50,44.94
2846.00,44.99
2845.50,45.05
2845.00,45.10
2844.50,45.15
2844.00,45.20
2843.50,45.25
2843.00,45.31
2842.50,45.36
2842.00,45.42
2841.50,45.48
2841.00,45.54
2840.50,45.61
2840.00,45.68
2839.50,45.75
2839.00,45.83
2838.50,45.92
2838.00,46.01
2837.50,46.12
2837.00,46.23
2836.50,46.35
2836.00,46.46
2835.50,46.58
2835.00,46.70
2834.50,46.82
2834.00,46.94
2833.50,47.07
2833.00,47.20
2832.50,47.32
2832.00,47.44
2831.50,47.55
2831.00,47.66
2830.50,47.77
2830.00,47.87
2829.50,47.96
2829.00,48.04
2828.50,48.12
2828.00,48.19
2827.50,48.24
2827.00,48.29
2826.50,48.33
2826.00,48.36
2825.50,48.38
2825.00,48.39
2824.50,48.39
2824.00,48.38
2823.50,48.37
2823.00,48.35
2822.50,48.31
2822.00,48.28
2821.50,48.23
2821.00,48.18
2820.50,48.12
2820.00,48.06
2819.50,48.00
2819.00,47.94
2818.50,47.87
2818.00,47.80
2817.50,47.73
2817.00,47.67
2816.50,47.60
2816.00,47.54
2815.50,47.48
2815.00,47.42
2814.50,47.37
2814.00,47.32
2813.50,47.29
2813.00,47.26
2812.50,47.23
2812.00,47.21
2811.50,47.20
2811.00,47.19
2810.50,47.18
2810.00,47.18
2809.50,47.20
2809.00,47.22
2808.50,47.24
2808.00,47.27
2807.50,47.30
2807.00,47.33
2806.50,47.37
2806.00,47.40
2805.50,47.44
2805.00,47.48
2804.50,47.53
2804.00,47.57
2803.50,47.62
2803.00,47.66
2802.50,47.71
2802.00,47.76
2801.50,47.81
2801.00,47.87
2800.50,47.93
2800.00,47.98
2799.50,48.05
2799.00,48.12
2798.50,48.20
2798.00,48.28
2797.50,48.38
2797.00,48.49
2796.50,48.61
2796.00,48.74
2795.50,48.89
2795.00,49.06
2794.50,49.24
2794.00,49.45
2793.50,49.68
2793.00,49.94
2792.50,50.22
2792.00,50.52
2791.50,50.85
2791.00,51.22
2790.50,51.61
2790.00,52.02
2789.50,52.46
2789.00,52.93
2788.50,53.42
2788.00,53.94
2787.50,54.47
2787.00,55.02
2786.50,55.58
2786.00,56.14
2785.50,56.71
2785.00,57.29
2784.50,57.86
2784.00,58.43
2783.50,59.00
2783.00,59.56
2782.50,60.11
2782.00,60.65
2781.50,61.18
2781.00,61.71
2780.50,62.22
2780.00,62.72
2779.50,63.20
2779.00,63.68
2778.50,64.14
2778.00,64.59
2777.50,65.02
2777.00,65.44
2776.50,65.85
2776.00,66.25
2775.50,66.64
2775.00,67.01
2774.50,67.38
2774.00,67.74
2773.50,68.09
2773.00,68.43
2772.50,68.75
2772.00,69.07
2771.50,69.38
2771.00,69.68
2770.50,69.98
2770.00,70.26
2769.50,70.54
2769.00,70.80
2768.50,71.06
2768.00,71.31
2767.50,71.56
2767.00,71.79
2766.50,72.03
2766.00,72.25
2765.50,72.47
2765.00,72.68
2764.50,72.88
2764.00,73.08
2763.50,73.27
2763.00,73.45
2762.50,73.63
2762.00,73.81
2761.50,73.97
2761.00,74.14
2760.50,74.30
2760.00,74.45
2759.50,74.60
2759.00,74.74
2758.50,74.89
2758.00,75.02
2757.50,75.15
2757.00,75.28
2756.50,75.41
2756.00,75.53
2755.50,75.64
2755.00,75.76
2754.50,75.88
2754.00,75.99
2753.50,76.09
2753.00,76.20
2752.50,76.30
2752.00,76.40
2751.50,76.49
2751.00,76.59
2750.50,76.68
2750.00,76.77
2749.50,76.86
2749.00,76.96
2748.50,77.05
2748.00,77.13
2747.50,77.22
2747.00,77.30
2746.50,77.39
2746.00,77.48
2745.50,77.56
2745.00,77.65
2744.50,77.73
2744.00,77.81
2743.50,77.89
2743.00,77.97
2742.50,78.05
2742.00,78.12
2741.50,78.19
2741.00,78.27
2740.50,78.34
2740.00,78.40
2739.50,78.47
2739.00,78.53
2738.50,78.59
2738.00,78.65
2737.50,78.71
2737.00,78.77
2736.50,78.83
2736.00,78.88
2735.50,78.94
2735.00,78.99
2734.50,79.04
2734.00,79.09
2733.50,79.14
2733.00,79.19
2732.50,79.23
2732.00,79.28
2731.50,79.32
2731.00,79.36
2730.50,79.40
2730.00,79.44
2729.50,79.47
2729.00,79.51
2728.50,79.54
2728.00,79.57
2727.50,79.60
2727.00,79.63
2726.50,79.66
2726.00,79.68
2725.50,79.70
2725.00,79.72
2724.50,79.75
2724.00,79.77
2723.50,79.79
2723.00,79.80
2722.50,79.82
2722.00,79.82
2721.50,79.83
2721.00,79.84
2720.50,79.85
2720.00,79.86
2719.50,79.86
2719.00,79.86
2718.50,79.86
2718.00,79.86
2717.50,79.85
2717.00,79.85
2716.50,79.84
2716.00,79.83
2715.50,79.82
2715.00,79.81
2714.50,79.80
2714.00,79.79
2713.50,79.77
2713.00,79.76
2712.50,79.74
2712.00,79.73
2711.50,79.72
2711.00,79.71
2710.50,79.70
2710.00,79.70
2709.50,79.69
2709.00,79.69
2708.50,79.69
2708.00,79.69
2707.50,79.70
2707.00,79.71
2706.50,79.72
2706.00,79.73
2705.50,79.75
2705.00,79.78
2704.50,79.80
2704.00,79.83
2703.50,79.85
2703.00,79.88
2702.50,79.91
2702.00,79.94
2701.50,79.97
2701.00,80.00
2700.50,80.04
2700.00,80.07
2699.50,80.09
2699.00,80.12
2698.50,80.15
2698.00,80.17
2697.50,80.20
2697.00,80.22
2696.50,80.24
2696.00,80.26
2695.50,80.28
2695.00,80.29
2694.50,80.30
2694.00,80.31
2693.50,80.32
2693.00,80.32
2692.50,80.33
2692.00,80.32
2691.50,80.32
2691.00,80.31
2690.50,80.30
2690.00,80.29
2689.50,80.26
2689.00,80.24
2688.50,80.21
2688.00,80.18
2687.50,80.15
2687.00,80.11
2686.50,80.06
2686.00,80.02
2685.50,79.96
2685.00,79.90
2684.50,79.84
2684.00,79.78
2683.50,79.71
2683.00,79.63
2682.50,79.55
2682.00,79.47
2681.50,79.37
2681.00,79.28
2680.50,79.18
2680.00,79.08
2679.50,78.97
2679.00,78.86
2678.50,78.75
2678.00,78.64
2677.50,78.52
2677.00,78.39
2676.50,78.27
2676.00,78.14
2675.50,78.01
2675.00,77.88
2674.50,77.74
2674.00,77.60
2673.50,77.46
2673.00,77.31
2672.50,77.17
2672.00,77.03
2671.50,76.88
2671.00,76.74
2670.50,76.60
2670.00,76.46
2669.50,76.32
2669.00,76.18
2668.50,76.05
2668.00,75.93
2667.50,75.81
2667.00,75.70
2666.50,75.60
2666.00,75.51
2665.50,75.42
2665.00,75.35
2664.50,75.29
2664.00,75.24
2663.50,75.20
2663.00,75.18
2662.50,75.17
2662.00,75.17
2661.50,75.18
2661.00,75.21
2660.50,75.25
2660.00,75.30
2659.50,75.36
2659.00,75.44
2658.50,75.52
2658.00,75.62
2657.50,75.73
2657.00,75.85
2656.50,75.97
2656.00,76.11
2655.50,76.26
2655.00,76.41
2654.50,76.58
2654.00,76.75
2653.50,76.92
2653.00,77.10
2652.50,77.29
2652.00,77.48
2651.50,77.68
2651.00,77.88
2650.50,78.08
2650.00,78.28
2649.50,78.48
2649.00,78.68
2648.50,78.89
2648.00,79.08
2647.50,79.28
2647.00,79.47
2646.50,79.66
2646.00,79.84
2645.50,80.02
2645.00,80.20
2644.50,80.37
2644.00,80.54
2643.50,80.71
2643.00,80.87
2642.50,81.02
2642.00,81.17
2641.50,81.31
2641.00,81.45
2640.50,81.59
2640.00,81.71
2639.50,81.84
2639.00,81.96
2638.50,82.07
2638.00,82.18
2637.50,82.29
2637.00,82.40
2636.50,82.50
2636.00,82.60
2635.50,82.69
2635.00,82.78
2634.50,82.87
2634.00,82.95
2633.50,83.03
2633.00,83.11
2632.50,83.19
2632.00,83.26
2631.50,83.33
2631.00,83.40
2630.50,83.46
2630.00,83.53
2629.50,83.59
2629.00,83.65
2628.50,83.71
2628.00,83.77
2627.50,83.82
2627.00,83.88
2626.50,83.93
2626.00,83.98
2625.50,84.03
2625.00,84.08
2624.50,84.13
2624.00,84.18
2623.50,84.23
2623.00,84.28
2622.50,84.33
2622.00,84.37
2621.50,84.41
2621.00,84.45
2620.50,84.49
2620.00,84.53
2619.50,84.56
2619.00,84.59
2618.50,84.63
2618.00,84.66
2617.50,84.70
2617.00,84.73
2616.50,84.76
2616.00,84.79
2615.50,84.82
2615.00,84.85
2614.50,84.88
2614.00,84.91
2613.50,84.94
2613.00,84.96
2612.50,84.99
2612.00,85.01
2611.50,85.03
2611.00,85.06
2610.50,85.08
2610.00,85.10
2609.50,85.12
2609.00,85.15
2608.50,85.17
2608.00,85.19
2607.50,85.21
2607.00,85.23
2606.50,85.25
2606.00,85.27
2605.50,85.28
2605.00,85.30
2604.50,85.32
2604.00,85.33
2603.50,85.34
2603.00,85.36
2602.50,85.37
2602.00,85.39
2601.50,85.40
2601.00,85.42
2600.50,85.43
2600.00,85.44
2599.50,85.45
2599.00,85.46
2598.50,85.47
2598.00,85.49
2597.50,85.50
2597.00,85.51
2596.50,85.52
2596.00,85.53
2595.50,85.54
2595.00,85.55
2594.50,85.56
2594.00,85.57
2593.50,85.58
2593.00,85.59
2592.50,85.60
2592.00,85.61
2591.50,85.62
2591.00,85.63
2590.50,85.65
2590.00,85.66
2589.50,85.68
2589.00,85.69
2588.50,85.70
2588.00,85.71
2587.50,85.72
2587.00,85.73
2586.50,85.74
2586.00,85.75
2585.50,85.76
2585.00,85.77
2584.50,85.78
2584.00,85.79
2583.50,85.80
2583.00,85.81
2582.50,85.82
2582.00,85.83
2581.50,85.84
2581.00,85.84
2580.50,85.85
2580.00,85.86
2579.50,85.86
2579.00,85.86
2578.50,85.87
2578.00,85.88
2577.50,85.88
2577.00,85.89
2576.50,85.89
2576.00,85.90
2575.50,85.90
2575.00,85.90
2574.50,85.91
2574.00,85.91
2573.50,85.92
2573.00,85.92
2572.50,85.93
2572.00,85.93
2571.50,85.94
2571.00,85.94
2570.50,85.95
2570.00,85.95
2569.50,85.95
2569.00,85.96
2568.50,85.96
2568.00,85.97
2567.50,85.97
2567.00,85.97
2566.50,85.97
2566.00,85.97
2565.50,85.98
2565.00,85.98
2564.50,85.98
2564.00,85.98
2563.50,85.98
2563.00,85.98
2562.50,85.98
2562.00,85.98
2561.50,85.98
2561.00,85.98
2560.50,85.98
2560.00,85.99
2559.50,85.98
2559.00,85.99
2558.50,85.99
2558.00,85.99
2557.50,85.99
2557.00,85.99
2556.50,85.99
2556.00,85.98
2555.50,85.98
2555.00,85.98
2554.50,85.98
2554.00,85.98
2553.50,85.97
2553.00,85.97
2552.50,85.97
2552.00,85.96
2551.50,85.96
2551.00,85.95
2550.50,85.95
2550.00,85.95
2549.50,85.94
2549.00,85.94
2548.50,85.93
2548.00,85.93
2547.50,85.92
2547.00,85.92
2546.50,85.91
2546.00,85.91
2545.50,85.90
2545.00,85.89
2544.50,85.88
2544.00,85.87
2543.50,85.86
2543.00,85.86
2542.50,85.85
2542.00,85.85
2541.50,85.84
2541.00,85.83
2540.50,85.82
2540.00,85.80
2539.50,85.79
2539.00,85.78
2538.50,85.77
2538.00,85.76
2537.50,85.74
2537.00,85.73
2536.50,85.71
2536.00,85.70
2535.50,85.68
2535.00,85.67
2534.50,85.65
2534.00,85.63
2533.50,85.60
2533.00,85.57
2532.50,85.55
2532.00,85.52
2531.50,85.49
2531.00,85.47
2530.50,85.44
2530.00,85.41
2529.50,85.38
2529.00,85.35
2528.50,85.31
2528.00,85.28
2527.50,85.24
2527.00,85.20
2526.50,85.16
2526.00,85.11
2525.50,85.07
2525.00,85.02
2524.50,84.98
2524.00,84.93
2523.50,84.88
2523.00,84.83
2522.50,84.78
2522.00,84.73
2521.50,84.67
2521.00,84.62
2520.50,84.56
2520.00,84.50
2519.50,84.43
2519.00,84.37
2518.50,84.30
2518.00,84.23
2517.50,84.15
2517.00,84.07
2516.50,83.99
2516.00,83.89
2515.50,83.80
2515.00,83.69
2514.50,83.58
2514.00,83.46
2513.50,83.32
2513.00,83.18
2512.50,83.03
2512.00,82.87
2511.50,82.69
2511.00,82.50
2510.50,82.29
2510.00,82.07
2509.50,81.82
2509.00,81.55
2508.50,81.26
2508.00,80.94
2507.50,80.59
2507.00,80.23
2506.50,79.83
2506.00,79.41
2505.50,78.97
2505.00,78.52
2504.50,78.05
2504.00,77.58
2503.50,77.12
2503.00,76.67
2502.50,76.25
2502.00,75.87
2501.50,75.54
2501.00,75.27
2500.50,75.07
2500.00,74.94
2499.50,74.89
2499.00,74.91
2498.50,74.99
2498.00,75.14
2497.50,75.34
2497.00,75.58
2496.50,75.86
2496.00,76.16
2495.50,76.48
2495.00,76.82
2494.50,77.16
2494.00,77.50
2493.50,77.84
2493.00,78.18
2492.50,78.51
2492.00,78.84
2491.50,79.16
2491.00,79.48
2490.50,79.79
2490.00,80.10
2489.50,80.39
2489.00,80.67
2488.50,80.95
2488.00,81.22
2487.50,81.47
2487.00,81.72
2486.50,81.96
2486.00,82.19
2485.50,82.40
2485.00,82.60
2484.50,82.79
2484.00,82.96
2483.50,83.13
2483.00,83.29
2482.50,83.44
2482.00,83.57
2481.50,83.70
2481.00,83.81
2480.50,83.93
2480.00,84.03
2479.50,84.13
2479.00,84.22
2478.50,84.31
2478.00,84.40
2477.50,84.47
2477.00,84.55
2476.50,84.62
2476.00,84.69
2475.50,84.75
2475.00,84.81
2474.50,84.87
2474.00,84.93
2473.50,84.98
2473.00,85.02
2472.50,85.07
2472.00,85.12
2471.50,85.15
2471.00,85.19
2470.50,85.24
2470.00,85.27
2469.50,85.31
2469.00,85.34
2468.50,85.37
2468.00,85.40
2467.50,85.43
2467.00,85.46
2466.50,85.48
2466.00,85.51
2465.50,85.54
2465.00,85.56
2464.50,85.59
2464.00,85.61
2463.50,85.63
2463.00,85.65
2462.50,85.67
2462.00,85.69
2461.50,85.71
2461.00,85.73
2460.50,85.75
2460.00,85.76
2459.50,85.78
2459.00,85.80
2458.50,85.82
2458.00,85.83
2457.50,85.84
2457.00,85.86
2456.50,85.88
2456.00,85.89
2455.50,85.91
2455.00,85.92
2454.50,85.93
2454.00,85.94
2453.50,85.95
2453.00,85.97
2452.50,85.98
2452.00,85.99
2451.50,85.99
2451.00,86.00
2450.50,86.01
2450.00,86.03
2449.50,86.04
2449.00,86.05
2448.50,86.06
2448.00,86.07
2447.50,86.07
2447.00,86.08
2446.50,86.09
2446.00,86.10
2445.50,86.10
2445.00,86.11
2444.50,86.11
2444.00,86.12
2443.50,86.12
2443.00,86.13
2442.50,86.14
2442.00,86.14
2441.50,86.14
2441.00,86.15
2440.50,86.15
2440.00,86.16
2439.50,86.16
2439.00,86.16
2438.50,86.16
2438.00,86.16
2437.50,86.16
2437.00,86.16
2436.50,86.17
2436.00,86.17
2435.50,86.18
2435.00,86.18
2434.50,86.19
2434.00,86.19
2433.50,86.19
2433.00,86.19
2432.50,86.19
2432.00,86.19
2431.50,86.19
2431.00,86.19
2430.50,86.20
2430.00,86.20
2429.50,86.20
2429.00,86.20
2428.50,86.21
2428.00,86.21
2427.50,86.21
2427.00,86.21
2426.50,86.21
2426.00,86.21
2425.50,86.21
2425.00,86.21
2424.50,86.21
2424.00,86.21
2423.50,86.21
2423.00,86.21
2422.50,86.21
2422.00,86.21
2421.50,86.21
2421.00,86.20
2420.50,86.21
2420.00,86.21
2419.50,86.20
2419.00,86.20
2418.50,86.20
2418.00,86.20
2417.50,86.19
2417.00,86.19
2416.50,86.19
2416.00,86.19
2415.50,86.18
2415.00,86.18
2414.50,86.17
2414.00,86.17
2413.50,86.16
2413.00,86.16
2412.50,86.16
2412.00,86.16
2411.50,86.15
2411.00,86.15
2410.50,86.14
2410.00,86.14
2409.50,86.14
2409.00,86.13
2408.50,86.13
2408.00,86.13
2407.50,86.13
2407.00,86.13
2406.50,86.13
2406.00,86.12
2405.50,86.12
2405.00,86.11
2404.50,86.11
2404.00,86.11
2403.50,86.10
2403.00,86.10
2402.50,86.10
2402.00,86.10
2401.50,86.10
2401.00,86.09
2400.50,86.09
2400.00,86.09
2399.50,86.09
2399.00,86.09
2398.50,86.09
2398.00,86.09
2397.50,86.08
2397.00,86.08
2396.50,86.08
2396.00,86.07
2395.50,86.07
2395.00,86.06
2394.50,86.06
2394.00,86.06
2393.50,86.05
2393.00,86.05
2392.50,86.05
2392.00,86.04
2391.50,86.04
2391.00,86.03
2390.50,86.03
2390.00,86.02
2389.50,86.02
2389.00,86.01
2388.50,86.00
2388.00,86.00
2387.50,85.99
2387.00,85.98
2386.50,85.97
2386.00,85.97
2385.50,85.96
2385.00,85.96
2384.50,85.95
2384.00,85.95
2383.50,85.93
2383.00,85.92
2382.50,85.92
2382.00,85.91
2381.50,85.90
2381.00,85.88
2380.50,85.87
2380.00,85.85
2379.50,85.84
2379.00,85.82
2378.50,85.82
2378.00,85.81
2377.50,85.80
2377.00,85.79
2376.50,85.78
2376.00,85.77
2375.50,85.76
2375.00,85.75
2374.50,85.75
2374.00,85.75
2373.50,85.74
2373.00,85.74
2372.50,85.74
2372.00,85.74
2371.50,85.74
2371.00,85.73
2370.50,85.73
2370.00,85.73
2369.50,85.72
2369.00,85.71
2368.50,85.70
2368.00,85.70
2367.50,85.68
2367.00,85.67
2366.50,85.66
2366.00,85.66
2365.50,85.65
2365.00,85.64
2364.50,85.64
2364.00,85.64
2363.50,85.63
2363.00,85.61
2362.50,85.61
2362.00,85.61
2361.50,85.59
2361.00,85.58
2360.50,85.57
2360.00,85.57
2359.50,85.54
2359.00,85.52
2358.50,85.52
2358.00,85.53
2357.50,85.52
2357.00,85.51
2356.50,85.51
2356.00,85.49
2355.50,85.46
2355.00,85.43
2354.50,85.43
2354.00,85.43
2353.50,85.41
2353.00,85.39
2352.50,85.36
2352.00,85.33
2351.50,85.31
2351.00,85.30
2350.50,85.31
2350.00,85.33
2349.50,85.32
2349.00,85.31
2348.50,85.29
2348.00,85.26
2347.50,85.24
2347.00,85.22
2346.50,85.22
2346.00,85.22
2345.50,85.22
2345.00,85.22
2344.50,85.22
2344.00,85.22
2343.50,85.21
2343.00,85.19
2342.50,85.17
2342.00,85.16
2341.50,85.13
2341.00,85.08
2340.50,85.04
2340.00,85.01
2339.50,84.98
2339.00,84.94
2338.50,84.93
2338.00,84.94
2337.50,84.94
2337.00,84.93
2336.50,84.94
2336.00,84.96
2335.50,84.96
2335.00,84.94
2334.50,84.94
2334.00,84.95
2333.50,84.94
2333.00,84.92
2332.50,84.92
2332.00,84.92
2331.50,84.90
2331.00,84.87
2330.50,84.87
2330.00,84.87
2329.50,84.86
2329.00,84.84
2328.50,84.84
2328.00,84.84
2327.50,84.82
2327.00,84.79
2326.50,84.78
2326.00,84.78
2325.50,84.76
2325.00,84.73
2324.50,84.72
2324.00,84.71
2323.50,84.69
2323.00,84.66
2322.50,84.66
2322.00,84.65
2321.50,84.62
2321.00,84.59
2320.50,84.58
2320.00,84.56
2319.50,84.54
2319.00,84.51
2318.50,84.50
2318.00,84.49
2317.50,84.47
2317.00,84.45
2316.50,84.43
2316.00,84.41
2315.50,84.38
2315.00,84.35
2314.50,84.33
2314.00,84.31
2313.50,84.28
2313.00,84.25
2312.50,84.24
2312.00,84.22
2311.50,84.20
2311.00,84.18
2310.50,84.16
2310.00,84.14
2309.50,84.10
2309.00,84.08
2308.50,84.06
2308.00,84.04
2307.50,84.01
2307.00,83.98
2306.50,83.95
2306.00,83.93
2305.50,83.90
2305.00,83.87
2304.50,83.84
2304.00,83.82
2303.50,83.80
2303.00,83.77
2302.50,83.74
2302.00,83.72
2301.50,83.69
2301.00,83.66
2300.50,83.62
2300.00,83.59
2299.50,83.56
2299.00,83.52
2298.50,83.49
2298.00,83.46
2297.50,83.42
2297.00,83.38
2296.50,83.35
2296.00,83.31
2295.50,83.27
2295.00,83.23
2294.50,83.19
2294.00,83.15
2293.50,83.10
2293.00,83.06
2292.50,83.02
2292.00,82.98
2291.50,82.93
2291.00,82.89
2290.50,82.85
2290.00,82.80
2289.50,82.76
2289.00,82.71
2288.50,82.67
2288.00,82.62
2287.50,82.57
2287.00,82.52
2286.50,82.47
2286.00,82.42
2285.50,82.37
2285.00,82.32
2284.50,82.27
2284.00,82.22
2283.50,82.17
2283.00,82.12
2282.50,82.07
2282.00,82.02
2281.50,81.97
2281.00,81.92
2280.50,81.88
2280.00,81.83
2279.50,81.78
2279.00,81.73
2278.50,81.69
2278.00,81.65
2277.50,81.61
2277.00,81.57
2276.50,81.53
2276.00,81.49
2275.50,81.46
2275.00,81.42
2274.50,81.40
2274.00,81.37
2273.50,81.34
2273.00,81.31
2272.50,81.28
2272.00,81.26
2271.50,81.24
2271.00,81.22
2270.50,81.20
2270.00,81.19
2269.50,81.17
2269.00,81.15
2268.50,81.14
2268.00,81.12
2267.50,81.10
2267.00,81.08
2266.50,81.06
2266.00,81.05
2265.50,81.03
2265.00,81.01
2264.50,80.99
2264.00,80.97
2263.50,80.94
2263.00,80.92
2262.50,80.90
2262.00,80.88
2261.50,80.85
2261.00,80.82
2260.50,80.80
2260.00,80.77
2259.50,80.75
2259.00,80.72
2258.50,80.69
2258.00,80.66
2257.50,80.63
2257.00,80.59
2256.50,80.56
2256.00,80.53
2255.50,80.50
2255.00,80.46
2254.50,80.43
2254.00,80.40
2253.50,80.35
2253.00,80.31
2252.50,80.27
2252.00,80.23
2251.50,80.19
2251.00,80.14
2250.50,80.10
2250.00,80.05
2249.50,80.00
2249.00,79.95
2248.50,79.90
2248.00,79.86
2247.50,79.80
2247.00,79.75
2246.50,79.69
2246.00,79.64
2245.50,79.58
2245.00,79.52
2244.50,79.46
2244.00,79.40
2243.50,79.33
2243.00,79.27
2242.50,79.21
2242.00,79.14
2241.50,79.07
2241.00,79.00
2240.50,78.93
2240.00,78.86
2239.50,78.78
2239.00,78.70
2238.50,78.62
2238.00,78.54
2237.50,78.46
2237.00,78.37
2236.50,78.28
2236.00,78.19
2235.50,78.10
2235.00,78.00
2234.50,77.90
2234.00,77.80
2233.50,77.70
2233.00,77.59
2232.50,77.48
2232.00,77.37
2231.50,77.26
2231.00,77.13
2230.50,77.01
2230.00,76.89
2229.50,76.76
2229.00,76.63
2228.50,76.50
2228.00,76.37
2227.50,76.23
2227.00,76.09
2226.50,75.95
2226.00,75.81
2225.50,75.66
2225.00,75.51
2224.50,75.36
2224.00,75.20
2223.50,75.05
2223.00,74.88
2222.50,74.72
2222.00,74.56
2221.50,74.40
2221.00,74.23
2220.50,74.06
2220.00,73.88
2219.50,73.71
2219.00,73.52
2218.50,73.34
2218.00,73.15
2217.50,72.96
2217.00,72.76
2216.50,72.56
2216.00,72.36
2215.50,72.16
2215.00,71.94
2214.50,71.72
2214.00,71.49
2213.50,71.26
2213.00,71.02
2212.50,70.77
2212.00,70.52
2211.50,70.27
2211.00,70.00
2210.50,69.73
2210.00,69.45
2209.50,69.16
2209.00,68.86
2208.50,68.55
2208.00,68.24
2207.50,67.92
2207.00,67.59
2206.50,67.25
2206.00,66.90
2205.50,66.54
2205.00,66.17
2204.50,65.79
2204.00,65.41
2203.50,65.01
2203.00,64.59
2202.50,64.17
2202.00,63.75
2201.50,63.30
2201.00,62.84
2200.50,62.37
2200.00,61.89
2199.50,61.40
2199.00,60.89
2198.50,60.37
2198.00,59.85
2197.50,59.30
2197.00,58.74
2196.50,58.17
2196.00,57.59
2195.50,56.99
2195.00,56.37
2194.50,55.74
2194.00,55.11
2193.50,54.45
2193.00,53.77
2192.50,53.09
2192.00,52.40
2191.50,51.69
2191.00,50.96
2190.50,50.22
2190.00,49.47
2189.50,48.71
2189.00,47.92
2188.50,47.14
2188.00,46.35
2187.50,45.54
2187.00,44.71
2186.50,43.88
2186.00,43.05
2185.50,42.20
2185.00,41.35
2184.50,40.49
2184.00,39.64
2183.50,38.77
2183.00,37.90
2182.50,37.03
2182.00,36.17
2181.50,35.31
2181.00,34.45
2180.50,33.60
2180.00,32.76
2179.50,31.93
2179.00,31.10
2178.50,30.29
2178.00,29.51
2177.50,28.73
2177.00,27.97
2176.50,27.22
2176.00,26.51
2175.50,25.82
2175.00,25.14
2174.50,24.50
2174.00,23.88
2173.50,23.29
2173.00,22.70
2172.50,22.15
2172.00,21.63
2171.50,21.14
2171.00,20.66
2170.50,20.21
2170.00,19.80
2169.50,19.41
2169.00,19.03
2168.50,18.69
2168.00,18.39
2167.50,18.11
2167.00,17.83
2166.50,17.60
2166.00,17.40
2165.50,17.22
2165.00,17.06
2164.50,16.92
2164.00,16.83
2163.50,16.76
2163.00,16.70
2162.50,16.67
2162.00,16.68
2161.50,16.71
2161.00,16.76
2160.50,16.84
2160.00,16.96
2159.50,17.10
2159.00,17.25
2158.50,17.43
2158.00,17.65
2157.50,17.90
2157.00,18.15
2156.50,18.44
2156.00,18.77
2155.50,19.12
2155.00,19.49
2154.50,19.89
2154.00,20.32
2153.50,20.78
2153.00,21.25
2152.50,21.75
2152.00,22.30
2151.50,22.86
2151.00,23.44
2150.50,24.05
2150.00,24.69
2149.50,25.36
2149.00,26.03
2148.50,26.73
2148.00,27.47
2147.50,28.22
2147.00,28.98
2146.50,29.76
2146.00,30.57
2145.50,31.38
2145.00,32.21
2144.50,33.05
2144.00,33.91
2143.50,34.77
2143.00,35.63
2142.50,36.50
2142.00,37.38
2141.50,38.26
2141.00,39.13
2140.50,40.01
2140.00,40.89
2139.50,41.77
2139.00,42.64
2138.50,43.50
2138.00,44.36
2137.50,45.21
2137.00,46.05
2136.50,46.88
2136.00,47.71
2135.50,48.52
2135.00,49.30
2134.50,50.07
2134.00,50.83
2133.50,51.58
2133.00,52.30
2132.50,53.00
2132.00,53.69
2131.50,54.36
2131.00,55.01
2130.50,55.64
2130.00,56.25
2129.50,56.84
2129.00,57.41
2128.50,57.96
2128.00,58.50
2127.50,59.01
2127.00,59.50
2126.50,59.98
2126.00,60.44
2125.50,60.88
2125.00,61.30
2124.50,61.72
2124.00,62.12
2123.50,62.50
2123.00,62.87
2122.50,63.23
2122.00,63.58
2121.50,63.91
2121.00,64.22
2120.50,64.53
2120.00,64.83
2119.50,65.11
2119.00,65.39
2118.50,65.65
2118.00,65.91
2117.50,66.15
2117.00,66.38
2116.50,66.61
2116.00,66.83
2115.50,67.03
2115.00,67.23
2114.50,67.42
2114.00,67.61
2113.50,67.78
2113.00,67.94
2112.50,68.10
2112.00,68.26
2111.50,68.41
2111.00,68.55
2110.50,68.69
2110.00,68.83
2109.50,68.96
2109.00,69.08
2108.50,69.20
2108.00,69.32
2107.50,69.44
2107.00,69.55
2106.50,69.67
2106.00,69.78
2105.50,69.88
2105.00,69.98
2104.50,70.09
2104.00,70.19
2103.50,70.29
2103.00,70.38
2102.50,70.48
2102.00,70.57
2101.50,70.66
2101.00,70.74
2100.50,70.82
2100.00,70.91
2099.50,70.98
2099.00,71.06
2098.50,71.14
2098.00,71.21
2097.50,71.28
2097.00,71.34
2096.50,71.41
2096.00,71.47
2095.50,71.52
2095.00,71.57
2094.50,71.62
2094.00,71.67
2093.50,71.71
2093.00,71.75
2092.50,71.78
2092.00,71.81
2091.50,71.84
2091.00,71.85
2090.50,71.87
2090.00,71.89
2089.50,71.90
2089.00,71.90
2088.50,71.91
2088.00,71.91
2087.50,71.90
2087.00,71.90
2086.50,71.89
2086.00,71.89
2085.50,71.88
2085.00,71.87
2084.50,71.86
2084.00,71.85
2083.50,71.83
2083.00,71.81
2082.50,71.80
2082.00,71.78
2081.50,71.76
2081.00,71.74
2080.50,71.73
2080.00,71.71
2079.50,71.68
2079.00,71.65
2078.50,71.63
2078.00,71.60
2077.50,71.57
2077.00,71.54
2076.50,71.50
2076.00,71.46
2075.50,71.42
2075.00,71.37
2074.50,71.32
2074.00,71.27
2073.50,71.21
2073.00,71.15
2072.50,71.09
2072.00,71.03
2071.50,70.96
2071.00,70.89
2070.50,70.82
2070.00,70.75
2069.50,70.67
2069.00,70.58
2068.50,70.49
2068.00,70.40
2067.50,70.30
2067.00,70.22
2066.50,70.14
2066.00,70.06
2065.50,69.97
2065.00,69.87
2064.50,69.78
2064.00,69.69
2063.50,69.59
2063.00,69.49
2062.50,69.39
2062.00,69.29
2061.50,69.19
2061.00,69.08
2060.50,68.98
2060.00,68.88
2059.50,68.77
2059.00,68.67
2058.50,68.57
2058.00,68.47
2057.50,68.37
2057.00,68.27
2056.50,68.18
2056.00,68.09
2055.50,68.01
2055.00,67.93
2054.50,67.87
2054.00,67.81
2053.50,67.76
2053.00,67.72
2052.50,67.70
2052.00,67.70
2051.50,67.71
2051.00,67.73
2050.50,67.78
2050.00,67.85
2049.50,67.94
2049.00,68.05
2048.50,68.19
2048.00,68.34
2047.50,68.52
2047.00,68.72
2046.50,68.95
2046.00,69.19
2045.50,69.44
2045.00,69.72
2044.50,70.00
2044.00,70.30
2043.50,70.60
2043.00,70.90
2042.50,71.21
2042.00,71.53
2041.50,71.85
2041.00,72.16
2040.50,72.45
2040.00,72.73
2039.50,73.00
2039.00,73.26
2038.50,73.51
2038.00,73.74
2037.50,73.96
2037.00,74.16
2036.50,74.34
2036.00,74.51
2035.50,74.67
2035.00,74.81
2034.50,74.93
2034.00,75.04
2033.50,75.13
2033.00,75.21
2032.50,75.27
2032.00,75.33
2031.50,75.37
2031.00,75.40
2030.50,75.42
2030.00,75.42
2029.50,75.42
2029.00,75.40
2028.50,75.38
2028.00,75.34
2027.50,75.30
2027.00,75.25
2026.50,75.19
2026.00,75.12
2025.50,75.05
2025.00,74.97
2024.50,74.88
2024.00,74.79
2023.50,74.69
2023.00,74.59
2022.50,74.48
2022.00,74.37
2021.50,74.25
2021.00,74.13
2020.50,74.01
2020.00,73.88
2019.50,73.75
2019.00,73.61
2018.50,73.46
2018.00,73.31
2017.50,73.16
2017.00,73.00
2016.50,72.84
2016.00,72.68
2015.50,72.52
2015.00,72.35
2014.50,72.18
2014.00,72.00
2013.50,71.82
2013.00,71.64
2012.50,71.46
2012.00,71.29
2011.50,71.11
2011.00,70.94
2010.50,70.78
2010.00,70.63
2009.50,70.48
2009.00,70.33
2008.50,70.20
2008.00,70.08
2007.50,69.96
2007.00,69.85
2006.50,69.75
2006.00,69.66
2005.50,69.56
2005.00,69.47
2004.50,69.37
2004.00,69.28
2003.50,69.19
2003.00,69.09
2002.50,68.99
2002.00,68.90
2001.50,68.80
2001.00,68.71
2000.50,68.63
2000.00,68.55
1999.50,68.48
1999.00,68.42
1998.50,68.38
1998.00,68.33
1997.50,68.29
1997.00,68.24
1996.50,68.20
1996.00,68.20
1995.50,68.24
1995.00,68.30
1994.50,68.36
1994.00,68.40
1993.50,68.43
1993.00,68.44
1992.50,68.45
1992.00,68.46
1991.50,68.46
1991.00,68.44
1990.50,68.41
1990.00,68.36
1989.50,68.30
1989.00,68.23
1988.50,68.14
1988.00,68.05
1987.50,67.95
1987.00,67.84
1986.50,67.72
1986.00,67.59
1985.50,67.45
1985.00,67.30
1984.50,67.14
1984.00,66.98
1983.50,66.80
1983.00,66.61
1982.50,66.42
1982.00,66.21
1981.50,66.00
1981.00,65.78
1980.50,65.55
1980.00,65.31
1979.50,65.06
1979.00,64.80
1978.50,64.54
1978.00,64.27
1977.50,63.98
1977.00,63.69
1976.50,63.38
1976.00,63.08
1975.50,62.76
1975.00,62.43
1974.50,62.10
1974.00,61.77
1973.50,61.42
1973.00,61.07
1972.50,60.71
1972.00,60.36
1971.50,60.00
1971.00,59.64
1970.50,59.28
1970.00,58.93
1969.50,58.58
1969.00,58.23
1968.50,57.88
1968.00,57.54
1967.50,57.18
1967.00,56.84
1966.50,56.52
1966.00,56.23
1965.50,55.94
1965.00,55.66
1964.50,55.38
1964.00,55.11
1963.50,54.85
1963.00,54.60
1962.50,54.35
1962.00,54.10
1961.50,53.86
1961.00,53.62
1960.50,53.38
1960.00,53.15
1959.50,52.92
1959.00,52.69
1958.50,52.45
1958.00,52.21
1957.50,51.97
1957.00,51.72
1956.50,51.47
1956.00,51.22
1955.50,50.95
1955.00,50.68
1954.50,50.40
1954.00,50.12
1953.50,49.84
1953.00,49.54
1952.50,49.25
1952.00,48.95
1951.50,48.66
1951.00,48.36
1950.50,48.06
1950.00,47.77
1949.50,47.48
1949.00,47.20
1948.50,46.94
1948.00,46.70
1947.50,46.47
1947.00,46.26
1946.50,46.07
1946.00,45.92
1945.50,45.79
1945.00,45.70
1944.50,45.64
1944.00,45.61
1943.50,45.64
1943.00,45.73
1942.50,45.89
1942.00,46.10
1941.50,46.32
1941.00,46.56
1940.50,46.85
1940.00,47.19
1939.50,47.56
1939.00,47.96
1938.50,48.38
1938.00,48.84
1937.50,49.31
1937.00,49.78
1936.50,50.26
1936.00,50.74
1935.50,51.21
1935.00,51.66
1934.50,52.10
1934.00,52.54
1933.50,52.95
1933.00,53.35
1932.50,53.73
1932.00,54.08
1931.50,54.41
1931.00,54.71
1930.50,55.00
1930.00,55.28
1929.50,55.52
1929.00,55.75
1928.50,55.97
1928.00,56.17
1927.50,56.36
1927.00,56.53
1926.50,56.70
1926.00,56.86
1925.50,57.00
1925.00,57.12
1924.50,57.23
1924.00,57.35
1923.50,57.48
1923.00,57.62
1922.50,57.77
1922.00,57.89
1921.50,58.00
1921.00,58.09
1920.50,58.19
1920.00,58.29
1919.50,58.38
1919.00,58.50
1918.50,58.67
1918.00,58.87
1917.50,59.05
1917.00,59.20
1916.50,59.35
1916.00,59.52
1915.50,59.72
1915.00,59.93
1914.50,60.15
1914.00,60.39
1913.50,60.62
1913.00,60.86
1912.50,61.09
1912.00,61.32
1911.50,61.53
1911.00,61.74
1910.50,61.97
1910.00,62.20
1909.50,62.41
1909.00,62.60
1908.50,62.78
1908.00,62.97
1907.50,63.15
1907.00,63.31
1906.50,63.47
1906.00,63.62
1905.50,63.77
1905.00,63.91
1904.50,64.05
1904.00,64.18
1903.50,64.30
1903.00,64.40
1902.50,64.50
1902.00,64.60
1901.50,64.68
1901.00,64.75
1900.50,64.82
1900.00,64.88
1899.50,64.93
1899.00,64.98
1898.50,65.02
1898.00,65.06
1897.50,65.09
1897.00,65.10
1896.50,65.11
1896.00,65.13
1895.50,65.14
1895.00,65.15
1894.50,65.16
1894.00,65.17
1893.50,65.16
1893.00,65.15
1892.50,65.14
1892.00,65.14
1891.50,65.11
1891.00,65.08
1890.50,65.06
1890.00,65.06
1889.50,65.06
1889.00,65.05
1888.50,65.05
1888.00,65.03
1887.50,65.01
1887.00,64.98
1886.50,64.96
1886.00,64.94
1885.50,64.92
1885.00,64.91
1884.50,64.89
1884.00,64.87
1883.50,64.85
1883.00,64.83
1882.50,64.81
1882.00,64.79
1881.50,64.77
1881.00,64.74
1880.50,64.72
1880.00,64.70
1879.50,64.68
1879.00,64.66
1878.50,64.64
1878.00,64.62
1877.50,64.59
1877.00,64.57
1876.50,64.55
1876.00,64.53
1875.50,64.51
1875.00,64.49
1874.50,64.47
1874.00,64.46
1873.50,64.44
1873.00,64.42
1872.50,64.40
1872.00,64.39
1871.50,64.36
1871.00,64.33
1870.50,64.32
1870.00,64.33
1869.50,64.35
1869.00,64.36
1868.50,64.37
1868.00,64.37
1867.50,64.37
1867.00,64.36
1866.50,64.36
1866.00,64.36
1865.50,64.35
1865.00,64.35
1864.50,64.35
1864.00,64.36
1863.50,64.36
1863.00,64.35
1862.50,64.35
1862.00,64.34
1861.50,64.33
1861.00,64.32
1860.50,64.31
1860.00,64.30
1859.50,64.28
1859.00,64.25
1858.50,64.23
1858.00,64.21
1857.50,64.18
1857.00,64.14
1856.50,64.11
1856.00,64.08
1855.50,64.05
1855.00,64.01
1854.50,63.99
1854.00,63.98
1853.50,63.96
1853.00,63.94
1852.50,63.93
1852.00,63.93
1851.50,63.93
1851.00,63.93
1850.50,63.94
1850.00,63.95
1849.50,63.95
1849.00,63.96
1848.50,63.99
1848.00,64.03
1847.50,64.06
1847.00,64.09
1846.50,64.11
1846.00,64.14
1845.50,64.17
1845.00,64.23
1844.50,64.33
1844.00,64.40
1843.50,64.39
1843.00,64.36
1842.50,64.35
1842.00,64.36
1841.50,64.37
1841.00,64.38
1840.50,64.38
1840.00,64.39
1839.50,64.38
1839.00,64.36
1838.50,64.35
1838.00,64.34
1837.50,64.34
1837.00,64.32
1836.50,64.31
1836.00,64.29
1835.50,64.26
1835.00,64.22
1834.50,64.19
1834.00,64.16
1833.50,64.12
1833.00,64.07
1832.50,64.03
1832.00,63.99
1831.50,63.94
1831.00,63.89
1830.50,63.85
1830.00,63.83
1829.50,63.77
1829.00,63.69
1828.50,63.62
1828.00,63.57
1827.50,63.50
1827.00,63.41
1826.50,63.33
1826.00,63.25
1825.50,63.16
1825.00,63.08
1824.50,63.01
1824.00,62.95
1823.50,62.87
1823.00,62.77
1822.50,62.68
1822.00,62.60
1821.50,62.50
1821.00,62.40
1820.50,62.30
1820.00,62.20
1819.50,62.10
1819.00,61.99
1818.50,61.89
1818.00,61.78
1817.50,61.67
1817.00,61.55
1816.50,61.45
1816.00,61.35
1815.50,61.24
1815.00,61.12
1814.50,61.01
1814.00,60.89
1813.50,60.77
1813.00,60.64
1812.50,60.52
1812.00,60.40
1811.50,60.28
1811.00,60.14
1810.50,60.00
1810.00,59.88
1809.50,59.75
1809.00,59.62
1808.50,59.49
1808.00,59.35
1807.50,59.21
1807.00,59.07
1806.50,58.94
1806.00,58.82
1805.50,58.68
1805.00,58.54
1804.50,58.39
1804.00,58.25
1803.50,58.09
1803.00,57.93
1802.50,57.79
1802.00,57.65
1801.50,57.52
1801.00,57.39
1800.50,57.26
1800.00,57.12
1799.50,56.96
1799.00,56.82
1798.50,56.70
1798.00,56.58
1797.50,56.45
1797.00,56.31
1796.50,56.18
1796.00,56.04
1795.50,55.91
1795.00,55.78
1794.50,55.67
1794.00,55.57
1793.50,55.47
1793.00,55.35
1792.50,55.21
1792.00,55.08
1791.50,54.94
1791.00,54.81
1790.50,54.70
1790.00,54.60
1789.50,54.50
1789.00,54.41
1788.50,54.31
1788.00,54.22
1787.50,54.12
1787.00,54.03
1786.50,53.95
1786.00,53.87
1785.50,53.79
1785.00,53.71
1784.50,53.64
1784.00,53.58
1783.50,53.51
1783.00,53.45
1782.50,53.38
1782.00,53.32
1781.50,53.25
1781.00,53.21
1780.50,53.18
1780.00,53.16
1779.50,53.13
1779.00,53.10
1778.50,53.07
1778.00,53.05
1777.50,53.02
1777.00,52.99
1776.50,52.97
1776.00,52.96
1775.50,52.95
1775.00,52.95
1774.50,52.95
1774.00,52.94
1773.50,52.94
1773.00,52.99
1772.50,53.07
1772.00,53.10
1771.50,53.08
1771.00,53.07
1770.50,53.05
1770.00,53.03
1769.50,53.01
1769.00,53.01
1768.50,53.04
1768.00,53.08
1767.50,53.12
1767.00,53.14
1766.50,53.16
1766.00,53.18
1765.50,53.20
1765.00,53.22
1764.50,53.24
1764.00,53.26
1763.50,53.27
1763.00,53.29
1762.50,53.33
1762.00,53.40
1761.50,53.44
1761.00,53.46
1760.50,53.47
1760.00,53.47
1759.50,53.48
1759.00,53.49
1758.50,53.50
1758.00,53.52
1757.50,53.55
1757.00,53.59
1756.50,53.64
1756.00,53.67
1755.50,53.67
1755.00,53.68
1754.50,53.70
1754.00,53.71
1753.50,53.70
1753.00,53.70
1752.50,53.69
1752.00,53.70
1751.50,53.73
1751.00,53.77
1750.50,53.78
1750.00,53.78
1749.50,53.77
1749.00,53.78
1748.50,53.80
1748.00,53.80
1747.50,53.79
1747.00,53.78
1746.50,53.77
1746.00,53.75
1745.50,53.72
1745.00,53.68
1744.50,53.65
1744.00,53.62
1743.50,53.59
1743.00,53.56
1742.50,53.55
1742.00,53.54
1741.50,53.51
1741.00,53.48
1740.50,53.47
1740.00,53.43
1739.50,53.36
1739.00,53.29
1738.50,53.23
1738.00,53.17
1737.50,53.10
1737.00,53.04
1736.50,52.98
1736.00,52.94
1735.50,52.90
1735.00,52.88
1734.50,52.87
1734.00,52.74
1733.50,52.55
1733.00,52.44
1732.50,52.38
1732.00,52.31
1731.50,52.23
1731.00,52.14
1730.50,52.05
1730.00,51.97
1729.50,51.89
1729.00,51.84
1728.50,51.79
1728.00,51.73
1727.50,51.66
1727.00,51.59
1726.50,51.52
1726.00,51.46
1725.50,51.40
1725.00,51.33
1724.50,51.28
1724.00,51.23
1723.50,51.17
1723.00,51.13
1722.50,51.09
1722.00,51.05
1721.50,51.00
1721.00,50.96
1720.50,50.92
1720.00,50.88
1719.50,50.82
1719.00,50.77
1718.50,50.78
1718.00,50.81
1717.50,50.76
1717.00,50.72
1716.50,50.72
1716.00,50.71
1715.50,50.70
1715.00,50.66
1714.50,50.63
1714.00,50.59
1713.50,50.57
1713.00,50.55
1712.50,50.53
1712.00,50.51
1711.50,50.48
1711.00,50.46
1710.50,50.45
1710.00,50.43
1709.50,50.41
1709.00,50.39
1708.50,50.37
1708.00,50.35
1707.50,50.32
1707.00,50.31
1706.50,50.29
1706.00,50.26
1705.50,50.21
1705.00,50.17
1704.50,50.14
1704.00,50.11
1703.50,50.07
1703.00,50.03
1702.50,50.00
1702.00,49.98
1701.50,49.95
1701.00,49.88
1700.50,49.86
1700.00,49.85
1699.50,49.79
1699.00,49.73
1698.50,49.68
1698.00,49.63
1697.50,49.55
1697.00,49.48
1696.50,49.42
1696.00,49.34
1695.50,49.25
1695.00,49.21
1694.50,49.18
1694.00,49.12
1693.50,49.05
1693.00,48.97
1692.50,48.90
1692.00,48.83
1691.50,48.75
1691.00,48.66
1690.50,48.58
1690.00,48.49
1689.50,48.39
1689.00,48.30
1688.50,48.21
1688.00,48.13
1687.50,48.05
1687.00,47.98
1686.50,47.90
1686.00,47.80
1685.50,47.68
1685.00,47.58
1684.50,47.56
1684.00,47.42
1683.50,47.28
1683.00,47.25
1682.50,47.22
1682.00,47.18
1681.50,47.11
1681.00,47.05
1680.50,46.98
1680.00,46.93
1679.50,46.87
1679.00,46.83
1678.50,46.79
1678.00,46.73
1677.50,46.67
1677.00,46.61
1676.50,46.57
1676.00,46.52
1675.50,46.41
1675.00,46.26
1674.50,46.16
1674.00,46.07
1673.50,45.97
1673.00,45.88
1672.50,45.79
1672.00,45.68
1671.50,45.55
1671.00,45.45
1670.50,45.38
1670.00,45.31
1669.50,45.16
1669.00,44.94
1668.50,44.77
1668.00,44.66
1667.50,44.55
1667.00,44.45
1666.50,44.35
1666.00,44.23
1665.50,44.11
1665.00,43.99
1664.50,43.89
1664.00,43.80
1663.50,43.69
1663.00,43.54
1662.50,43.37
1662.00,43.23
1661.50,43.10
1661.00,42.99
1660.50,42.88
1660.00,42.78
1659.50,42.66
1659.00,42.54
1658.50,42.42
1658.00,42.31
1657.50,42.19
1657.00,42.07
1656.50,41.97
1656.00,41.90
1655.50,41.80
1655.00,41.71
1654.50,41.62
1654.00,41.60
1653.50,41.43
1653.00,41.00
1652.50,40.86
1652.00,40.86
1651.50,40.82
1651.00,40.78
1650.50,40.71
1650.00,40.64
1649.50,40.55
1649.00,40.45
1648.50,40.37
1648.00,40.30
1647.50,40.21
1647.00,40.13
1646.50,40.03
1646.00,39.90
1645.50,39.77
1645.00,39.69
1644.50,39.63
1644.00,39.56
1643.50,39.48
1643.00,39.39
1642.50,39.32
1642.00,39.24
1641.50,39.16
1641.00,39.08
1640.50,39.00
1640.00,38.93
1639.50,38.85
1639.00,38.77
1638.50,38.71
1638.00,38.64
1637.50,38.56
1637.00,38.49
1636.50,38.45
1636.00,38.37
1635.50,38.18
1635.00,38.01
1634.50,37.96
1634.00,37.92
1633.50,37.85
1633.00,37.77
1632.50,37.68
1632.00,37.60
1631.50,37.51
1631.00,37.42
1630.50,37.33
1630.00,37.25
1629.50,37.16
1629.00,37.08
1628.50,36.99
1628.00,36.88
1627.50,36.76
1627.00,36.66
1626.50,36.58
1626.00,36.50
1625.50,36.43
1625.00,36.35
1624.50,36.29
1624.00,36.21
1623.50,36.09
1623.00,35.94
1622.50,35.83
1622.00,35.75
1621.50,35.67
1621.00,35.58
1620.50,35.49
1620.00,35.41
1619.50,35.33
1619.00,35.25
1618.50,35.18
1618.00,35.12
1617.50,35.05
1617.00,34.94
1616.50,34.82
1616.00,34.74
1615.50,34.69
1615.00,34.64
1614.50,34.60
1614.00,34.56
1613.50,34.51
1613.00,34.46
1612.50,34.42
1612.00,34.39
1611.50,34.35
1611.00,34.31
1610.50,34.28
1610.00,34.26
1609.50,34.22
1609.00,34.18
1608.50,34.15
1608.00,34.12
1607.50,34.08
1607.00,34.03
1606.50,33.98
1606.00,33.94
1605.50,33.88
1605.00,33.80
1604.50,33.72
1604.00,33.63
1603.50,33.49
1603.00,33.32
1602.50,33.12
1602.00,32.88
1601.50,32.57
1601.00,32.17
1600.50,31.71
1600.00,31.17
1599.50,30.55
1599.00,29.88
1598.50,29.25
1598.00,28.72
1597.50,28.36
1597.00,28.25
1596.50,28.45
1596.00,28.92
1595.50,29.57
1595.00,30.37
1594.50,31.24
1594.00,32.05
1593.50,32.71
1593.00,33.26
1592.50,33.74
1592.00,34.16
1591.50,34.52
1591.00,34.83
1590.50,35.11
1590.00,35.38
1589.50,35.61
1589.00,35.82
1588.50,36.03
1588.00,36.23
1587.50,36.41
1587.00,36.59
1586.50,36.77
1586.00,36.95
1585.50,37.12
1585.00,37.28
1584.50,37.44
1584.00,37.61
1583.50,37.76
1583.00,37.91
1582.50,38.07
1582.00,38.22
1581.50,38.36
1581.00,38.50
1580.50,38.64
1580.00,38.79
1579.50,38.92
1579.00,39.04
1578.50,39.16
1578.00,39.26
1577.50,39.34
1577.00,39.47
1576.50,39.72
1576.00,39.99
1575.50,40.12
1575.00,40.19
1574.50,40.26
1574.00,40.35
1573.50,40.44
1573.00,40.54
1572.50,40.64
1572.00,40.74
1571.50,40.83
1571.00,40.91
1570.50,41.01
1570.00,41.20
1569.50,41.40
1569.00,41.51
1568.50,41.57
1568.00,41.63
1567.50,41.69
1567.00,41.75
1566.50,41.81
1566.00,41.88
1565.50,41.96
1565.00,42.05
1564.50,42.14
1564.00,42.21
1563.50,42.25
1563.00,42.29
1562.50,42.33
1562.00,42.35
1561.50,42.35
1561.00,42.34
1560.50,42.35
1560.00,42.52
1559.50,42.91
1559.00,43.12
1558.50,43.00
1558.00,42.87
1557.50,42.86
1557.00,42.87
1556.50,42.86
1556.00,42.85
1555.50,42.84
1555.00,42.87
1554.50,42.92
1554.00,42.96
1553.50,42.97
1553.00,42.96
1552.50,42.95
1552.00,42.94
1551.50,42.92
1551.00,42.88
1550.50,42.87
1550.00,42.89
1549.50,42.91
1549.00,42.93
1548.50,42.94
1548.00,42.94
1547.50,42.92
1547.00,42.89
1546.50,42.87
1546.00,42.86
1545.50,42.85
1545.00,42.85
1544.50,42.83
1544.00,42.81
1543.50,42.79
1543.00,42.80
1542.50,42.84
1542.00,42.85
1541.50,42.81
1541.00,42.75
1540.50,42.73
1540.00,42.77
1539.50,42.68
1539.00,42.53
1538.50,42.50
1538.00,42.51
1537.50,42.49
1537.00,42.47
1536.50,42.44
1536.00,42.41
1535.50,42.38
1535.00,42.34
1534.50,42.32
1534.00,42.30
1533.50,42.27
1533.00,42.23
1532.50,42.20
1532.00,42.18
1531.50,42.15
1531.00,42.13
1530.50,42.13
1530.00,42.11
1529.50,42.09
1529.00,42.06
1528.50,42.05
1528.00,42.05
1527.50,42.04
1527.00,42.04
1526.50,42.05
1526.00,42.08
1525.50,42.09
1525.00,42.10
1524.50,42.09
1524.00,42.09
1523.50,42.08
1523.00,42.09
1522.50,42.12
1522.00,42.16
1521.50,42.18
1521.00,42.15
1520.50,42.14
1520.00,42.14
1519.50,42.13
1519.00,42.10
1518.50,42.07
1518.00,42.05
1517.50,42.05
1517.00,42.08
1516.50,42.10
1516.00,42.12
1515.50,42.13
1515.00,42.14
1514.50,42.16
1514.00,42.16
1513.50,42.16
1513.00,42.15
1512.50,42.15
1512.00,42.15
1511.50,42.13
1511.00,42.10
1510.50,42.07
1510.00,42.04
1509.50,42.02
1509.00,41.99
1508.50,41.99
1508.00,41.99
1507.50,42.01
1507.00,42.08
1506.50,42.15
1506.00,42.13
1505.50,42.09
1505.00,42.08
1504.50,42.08
1504.00,42.07
1503.50,42.04
1503.00,42.01
1502.50,41.99
1502.00,41.98
1501.50,41.95
1501.00,41.92
1500.50,41.90
1500.00,41.87
1499.50,41.81
1499.00,41.75
1498.50,41.70
1498.00,41.63
1497.50,41.54
1497.00,41.44
1496.50,41.34
1496.00,41.19
1495.50,41.03
1495.00,40.89
1494.50,40.77
1494.00,40.61
1493.50,40.42
1493.00,40.23
1492.50,40.05
1492.00,39.87
1491.50,39.64
1491.00,39.38
1490.50,39.08
1490.00,38.72
1489.50,38.38
1489.00,38.16
1488.50,37.99
1488.00,37.79
1487.50,37.52
1487.00,37.22
1486.50,36.97
1486.00,36.77
1485.50,36.58
1485.00,36.41
1484.50,36.25
1484.00,36.10
1483.50,35.95
1483.00,35.82
1482.50,35.70
1482.00,35.60
1481.50,35.50
1481.00,35.42
1480.50,35.37
1480.00,35.33
1479.50,35.28
1479.00,35.23
1478.50,35.19
1478.00,35.14
1477.50,35.08
1477.00,35.00
1476.50,34.93
1476.00,34.87
1475.50,34.80
1475.00,34.73
1474.50,34.66
1474.00,34.57
1473.50,34.44
1473.00,34.26
1472.50,34.00
1472.00,33.66
1471.50,33.33
1471.00,33.06
1470.50,32.81
1470.00,32.52
1469.50,32.16
1469.00,31.75
1468.50,31.34
1468.00,30.90
1467.50,30.45
1467.00,30.03
1466.50,29.66
1466.00,29.27
1465.50,28.73
1465.00,27.99
1464.50,27.26
1464.00,26.69
1463.50,26.19
1463.00,25.68
1462.50,25.13
1462.00,24.53
1461.50,23.92
1461.00,23.36
1460.50,22.84
1460.00,22.34
1459.50,21.79
1459.00,21.22
1458.50,20.68
1458.00,20.18
1457.50,19.58
1457.00,18.87
1456.50,18.25
1456.00,17.80
1455.50,17.39
1455.00,16.98
1454.50,16.57
1454.00,16.15
1453.50,15.72
1453.00,15.26
1452.50,14.74
1452.00,14.18
1451.50,13.63
1451.00,13.15
1450.50,12.72
1450.00,12.32
1449.50,11.95
1449.00,11.58
1448.50,11.21
1448.00,10.83
1447.50,10.51
1447.00,10.31
1446.50,10.21
1446.00,10.15
1445.50,10.12
1445.00,10.14
1444.50,10.22
1444.00,10.35
1443.50,10.52
1443.00,10.73
1442.50,11.01
1442.00,11.31
1441.50,11.62
1441.00,11.96
1440.50,12.34
1440.00,12.71
1439.50,13.07
1439.00,13.40
1438.50,13.71
1438.00,13.99
1437.50,14.27
1437.00,14.69
1436.50,15.18
1436.00,15.46
1435.50,15.55
1435.00,15.62
1434.50,15.70
1434.00,15.76
1433.50,15.75
1433.00,15.72
1432.50,15.65
1432.00,15.54
1431.50,15.38
1431.00,15.17
1430.50,14.90
1430.00,14.53
1429.50,14.09
1429.00,13.68
1428.50,13.29
1428.00,12.84
1427.50,12.32
1427.00,11.76
1426.50,11.20
1426.00,10.63
1425.50,10.04
1425.00,9.44
1424.50,8.75
1424.00,7.91
1423.50,7.08
1423.00,6.44
1422.50,5.91
1422.00,5.39
1421.50,4.89
1421.00,4.46
1420.50,4.09
1420.00,3.62
1419.50,2.98
1419.00,2.42
1418.50,2.13
1418.00,1.95
1417.50,1.77
1417.00,1.60
1416.50,1.46
1416.00,1.33
1415.50,1.21
1415.00,1.13
1414.50,1.07
1414.00,1.02
1413.50,0.97
1413.00,0.95
1412.50,0.93
1412.00,0.92
1411.50,0.91
1411.00,0.92
1410.50,0.94
1410.00,0.96
1409.50,0.98
1409.00,1.02
1408.50,1.07
1408.00,1.12
1407.50,1.17
1407.00,1.24
1406.50,1.31
1406.00,1.37
1405.50,1.45
1405.00,1.56
1404.50,1.66
1404.00,1.74
1403.50,1.81
1403.00,1.88
1402.50,1.96
1402.00,2.04
1401.50,2.12
1401.00,2.21
1400.50,2.31
1400.00,2.44
1399.50,2.63
1399.00,2.89
1398.50,3.17
1398.00,3.44
1397.50,3.73
1397.00,4.06
1396.50,4.43
1396.00,4.84
1395.50,5.38
1395.00,6.09
1394.50,6.87
1394.00,7.58
1393.50,8.19
1393.00,8.76
1392.50,9.35
1392.00,9.99
1391.50,10.67
1391.00,11.35
1390.50,12.02
1390.00,12.64
1389.50,13.21
1389.00,13.73
1388.50,14.22
1388.00,14.78
1387.50,15.42
1387.00,16.01
1386.50,16.46
1386.00,16.83
1385.50,17.18
1385.00,17.53
1384.50,17.89
1384.00,18.25
1383.50,18.63
1383.00,19.01
1382.50,19.37
1382.00,19.73
1381.50,20.08
1381.00,20.42
1380.50,20.73
1380.00,21.03
1379.50,21.32
1379.00,21.59
1378.50,21.82
1378.00,22.03
1377.50,22.24
1377.00,22.40
1376.50,22.52
1376.00,22.63
1375.50,22.75
1375.00,22.85
1374.50,22.92
1374.00,22.98
1373.50,23.06
1373.00,23.13
1372.50,23.20
1372.00,23.31
1371.50,23.47
1371.00,23.66
1370.50,23.86
1370.00,24.09
1369.50,24.34
1369.00,24.60
1368.50,24.84
1368.00,25.05
1367.50,25.24
1367.00,25.40
1366.50,25.54
1366.00,25.67
1365.50,25.80
1365.00,25.91
1364.50,25.99
1364.00,26.07
1363.50,26.19
1363.00,26.32
1362.50,26.41
1362.00,26.50
1361.50,26.58
1361.00,26.67
1360.50,26.74
1360.00,26.81
1359.50,26.88
1359.00,26.94
1358.50,26.99
1358.00,27.05
1357.50,27.11
1357.00,27.15
1356.50,27.18
1356.00,27.22
1355.50,27.26
1355.00,27.30
1354.50,27.31
1354.00,27.33
1353.50,27.35
1353.00,27.35
1352.50,27.34
1352.00,27.33
1351.50,27.33
1351.00,27.31
1350.50,27.28
1350.00,27.25
1349.50,27.23
1349.00,27.19
1348.50,27.14
1348.00,27.10
1347.50,27.06
1347.00,27.02
1346.50,26.98
1346.00,26.94
1345.50,26.92
1345.00,26.90
1344.50,26.87
1344.00,26.85
1343.50,26.85
1343.00,26.84
1342.50,26.83
1342.00,26.82
1341.50,26.82
1341.00,26.81
1340.50,26.80
1340.00,26.79
1339.50,26.79
1339.00,26.77
1338.50,26.74
1338.00,26.71
1337.50,26.68
1337.00,26.63
1336.50,26.56
1336.00,26.50
1335.50,26.44
1335.00,26.36
1334.50,26.26
1334.00,26.15
1333.50,26.04
1333.00,25.92
1332.50,25.77
1332.00,25.63
1331.50,25.49
1331.00,25.33
1330.50,25.16
1330.00,24.99
1329.50,24.81
1329.00,24.62
1328.50,24.42
1328.00,24.22
1327.50,24.02
1327.00,23.80
1326.50,23.58
1326.00,23.35
1325.50,23.13
1325.00,22.89
1324.50,22.64
1324.00,22.40
1323.50,22.16
1323.00,21.91
1322.50,21.64
1322.00,21.39
1321.50,21.13
1321.00,20.86
1320.50,20.58
1320.00,20.31
1319.50,20.03
1319.00,19.74
1318.50,19.45
1318.00,19.17
1317.50,18.90
1317.00,18.61
1316.50,18.31
1316.00,18.03
1315.50,17.75
1315.00,17.47
1314.50,17.17
1314.00,16.88
1313.50,16.58
1313.00,16.28
1312.50,15.97
1312.00,15.67
1311.50,15.39
1311.00,15.10
1310.50,14.81
1310.00,14.53
1309.50,14.25
1309.00,13.95
1308.50,13.66
1308.00,13.37
1307.50,13.10
1307.00,12.81
1306.50,12.53
1306.00,12.26
1305.50,11.98
1305.00,11.70
1304.50,11.42
1304.00,11.15
1303.50,10.89
1303.00,10.60
1302.50,10.32
1302.00,10.04
1301.50,9.77
1301.00,9.48
1300.50,9.19
1300.00,8.92
1299.50,8.64
1299.00,8.35
1298.50,8.06
1298.00,7.79
1297.50,7.51
1297.00,7.22
1296.50,6.93
1296.00,6.65
1295.50,6.38
1295.00,6.10
1294.50,5.82
1294.00,5.56
1293.50,5.31
1293.00,5.04
1292.50,4.78
1292.00,4.54
1291.50,4.30
1291.00,4.05
1290.50,3.81
1290.00,3.58
1289.50,3.37
1289.00,3.14
1288.50,2.93
1288.00,2.73
1287.50,2.53
1287.00,2.32
1286.50,2.13
1286.00,1.96
1285.50,1.79
1285.00,1.62
1284.50,1.45
1284.00,1.31
1283.50,1.17
1283.00,1.02
1282.50,0.89
1282.00,0.78
1281.50,0.67
1281.00,0.56
1280.50,0.46
1280.00,0.39
1279.50,0.32
1279.00,0.25
1278.50,0.19
1278.00,0.15
1277.50,0.11
1277.00,0.08
1276.50,0.05
1276.00,0.04
1275.50,0.03
1275.00,0.01
1274.50,0.00
1274.00,0.01
1273.50,0.01
1273.00,0.01
1272.50,0.01
1272.00,0.01
1271.50,0.01
1271.00,0.00
1270.50,0.00
1270.00,0.00
1269.50,0.00
1269.00,0.00
1268.50,0.00
1268.00,0.01
1267.50,0.01
1267.00,0.00
1266.50,0.00
1266.00,0.01
1265.50,0.01
1265.00,0.00
1264.50,0.00
1264.00,0.00
1263.50,0.00
1263.00,0.00
1262.50,0.00
1262.00,0.00
1261.50,0.00
1261.00,0.00
1260.50,0.01
1260.00,0.01
1259.50,0.01
1259.00,0.01
1258.50,0.01
1258.00,0.01
1257.50,0.00
1257.00,0.01
1256.50,0.01
1256.00,0.01
1255.50,0.01
1255.00,0.01
1254.50,0.00
1254.00,0.00
1253.50,0.00
1253.00,0.00
1252.50,0.00
1252.00,0.00
1251.50,0.00
1251.00,0.00
1250.50,0.01
1250.00,0.00
1249.50,0.00
1249.00,0.00
1248.50,0.01
1248.00,0.00
1247.50,0.00
1247.00,0.00
1246.50,0.00
1246.00,0.01
1245.50,0.01
1245.00,0.01
1244.50,0.01
1244.00,0.02
1243.50,0.03
1243.00,0.04
1242.50,0.06
1242.00,0.09
1241.50,0.11
1241.00,0.13
1240.50,0.16
1240.00,0.20
1239.50,0.24
1239.00,0.27
1238.50,0.31
1238.00,0.35
1237.50,0.39
1237.00,0.42
1236.50,0.45
1236.00,0.49
1235.50,0.52
1235.00,0.54
1234.50,0.57
1234.00,0.60
1233.50,0.62
1233.00,0.63
1232.50,0.64
1232.00,0.65
1231.50,0.66
1231.00,0.66
1230.50,0.65
1230.00,0.66
1229.50,0.65
1229.00,0.64
1228.50,0.62
1228.00,0.61
1227.50,0.59
1227.00,0.56
1226.50,0.54
1226.00,0.52
1225.50,0.50
1225.00,0.47
1224.50,0.45
1224.00,0.43
1223.50,0.40
1223.00,0.37
1222.50,0.34
1222.00,0.32
1221.50,0.29
1221.00,0.27
1220.50,0.24
1220.00,0.23
1219.50,0.21
1219.00,0.19
1218.50,0.17
1218.00,0.16
1217.50,0.15
1217.00,0.13
1216.50,0.11
1216.00,0.10
1215.50,0.09
1215.00,0.08
1214.50,0.07
1214.00,0.07
1213.50,0.07
1213.00,0.05
1212.50,0.04
1212.00,0.04
1211.50,0.04
1211.00,0.03
1210.50,0.02
1210.00,0.02
1209.50,0.02
1209.00,0.02
1208.50,0.02
1208.00,0.02
1207.50,0.02
1207.00,0.01
1206.50,0.01
1206.00,0.01
1205.50,0.01
1205.00,0.01
1204.50,0.01
1204.00,0.01
1203.50,0.01
1203.00,0.01
1202.50,0.01
1202.00,0.01
1201.50,0.01
1201.00,0.00
1200.50,0.00
1200.00,0.00
1199.50,0.00
1199.00,0.00
1198.50,0.01
1198.00,0.00
1197.50,0.00
1197.00,0.00
1196.50,0.00
1196.00,0.00
1195.50,0.00
1195.00,0.00
1194.50,0.00
1194.00,0.01
1193.50,0.01
1193.00,0.00
1192.50,0.00
1192.00,0.00
1191.50,0.00
1191.00,0.00
1190.50,0.01
1190.00,0.01
1189.50,0.01
1189.00,0.00
1188.50,0.00
1188.00,0.00
1187.50,0.01
1187.00,0.01
1186.50,0.00
1186.00,0.01
1185.50,0.01
1185.00,0.01
1184.50,0.00
1184.00,0.01
1183.50,0.01
1183.00,0.00
1182.50,0.00
1182.00,0.01
1181.50,0.01
1181.00,0.00
1180.50,0.01
1180.00,0.01
1179.50,0.01
1179.00,0.00
1178.50,0.01
1178.00,0.02
1177.50,0.02
1177.00,0.02
1176.50,0.01
1176.00,0.01
1175.50,0.01
1175.00,0.01
1174.50,0.01
1174.00,0.00
1173.50,0.00
1173.00,0.01
1172.50,0.00
1172.00,0.00
1171.50,0.01
1171.00,0.01
1170.50,0.01
1170.00,0.01
1169.50,0.01
1169.00,0.01
1168.50,0.01
1168.00,0.00
1167.50,0.00
1167.00,0.01
1166.50,0.01
1166.00,0.00
1165.50,0.00
1165.00,0.00
1164.50,0.00
1164.00,0.00
1163.50,0.00
1163.00,0.01
1162.50,0.01
1162.00,0.00
1161.50,0.00
1161.00,0.01
1160.50,0.00
1160.00,0.00
1159.50,0.01
1159.00,0.00
1158.50,0.00
1158.00,0.01
1157.50,0.01
1157.00,0.00
1156.50,0.00
1156.00,0.01
1155.50,0.01
1155.00,0.00
1154.50,0.00
1154.00,0.00
1153.50,0.00
1153.00,0.00
1152.50,0.00
1152.00,0.00
1151.50,0.01
1151.00,0.01
1150.50,0.01
1150.00,0.01
1149.50,0.01
1149.00,0.01
1148.50,0.01
1148.00,0.00
1147.50,0.01
1147.00,0.00
1146.50,0.01
1146.00,0.01
1145.50,0.01
1145.00,0.01
1144.50,0.02
1144.00,0.01
1143.50,0.01
1143.00,0.02
1142.50,0.01
1142.00,0.01
1141.50,0.00
1141.00,0.00
1140.50,0.00
1140.00,0.00
1139.50,0.00
1139.00,0.00
1138.50,0.00
1138.00,0.01
1137.50,0.00
1137.00,0.01
1136.50,0.01
1136.00,0.00
1135.50,0.00
1135.00,0.01
1134.50,0.01
1134.00,0.01
1133.50,0.01
1133.00,0.01
1132.50,0.01
1132.00,0.01
1131.50,0.00
1131.00,0.00
1130.50,0.00
1130.00,0.01
1129.50,0.01
1129.00,0.01
1128.50,0.01
1128.00,0.00
1127.50,0.00
1127.00,0.00
1126.50,0.00
1126.00,0.01
1125.50,0.01
1125.00,0.00
1124.50,0.00
1124.00,0.00
1123.50,0.00
1123.00,0.00
1122.50,0.01
1122.00,0.01
1121.50,0.01
1121.00,0.01
1120.50,0.01
1120.00,0.00
1119.50,0.00
1119.00,0.00
1118.50,0.00
1118.00,0.01
1117.50,0.00
1117.00,0.00
1116.50,0.01
1116.00,0.00
1115.50,0.00
1115.00,0.01
1114.50,0.01
1114.00,0.00
1113.50,0.00
1113.00,0.00
1112.50,0.01
1112.00,0.01
1111.50,0.01
1111.00,0.01
1110.50,0.01
1110.00,0.00
1109.50,0.00
1109.00,0.00
1108.50,0.01
1108.00,0.01
1107.50,0.01
1107.00,0.01
1106.50,0.02
1106.00,0.01
1105.50,0.00
1105.00,0.00
1104.50,0.00
1104.00,0.00
1103.50,0.00
1103.00,0.01
1102.50,0.01
1102.00,0.01
1101.50,0.01
1101.00,0.01
1100.50,0.01
1100.00,0.01
1099.50,0.01
1099.00,0.01
1098.50,0.01
1098.00,0.00
1097.50,0.00
1097.00,0.00
1096.50,0.01
1096.00,0.00
1095.50,0.00
1095.00,0.01
1094.50,0.01
1094.00,0.01
1093.50,0.01
1093.00,0.01
1092.50,0.01
1092.00,0.01
1091.50,0.01
1091.00,0.01
1090.50,0.01
1090.00,0.01
1089.50,0.00
1089.00,0.00
1088.50,0.01
1088.00,0.00
1087.50,0.00
1087.00,0.01
1086.50,0.01
1086.00,0.01
1085.50,0.00
1085.00,0.00
1084.50,0.00
1084.00,0.00
1083.50,0.00
1083.00,0.00
1082.50,0.01
1082.00,0.01
1081.50,0.01
1081.00,0.00
1080.50,0.00
1080.00,0.00
1079.50,0.00
1079.00,0.00
1078.50,0.00
1078.00,0.01
1077.50,0.01
1077.00,0.01
1076.50,0.01
1076.00,0.01
1075.50,0.01
1075.00,0.01
1074.50,0.01
1074.00,0.01
1073.50,0.01
1073.00,0.01
1072.50,0.01
1072.00,0.01
1071.50,0.01
1071.00,0.01
1070.50,0.02
1070.00,0.01
1069.50,0.01
1069.00,0.01
1068.50,0.01
1068.00,0.00
1067.50,0.00
1067.00,0.01
1066.50,0.01
1066.00,0.00
1065.50,0.00
1065.00,0.00
1064.50,0.00
1064.00,0.01
1063.50,0.00
1063.00,0.00
1062.50,0.00
1062.00,0.01
1061.50,0.01
1061.00,0.00
1060.50,0.01
1060.00,0.01
1059.50,0.00
1059.00,0.01
1058.50,0.01
1058.00,0.01
1057.50,0.01
1057.00,0.01
1056.50,0.01
1056.00,0.01
1055.50,0.00
1055.00,0.01
1054.50,0.01
1054.00,0.01
1053.50,0.01
1053.00,0.00
1052.50,0.01
1052.00,0.01
1051.50,0.00
1051.00,0.00
1050.50,0.01
1050.00,0.01
1049.50,0.01
1049.00,0.01
1048.50,0.01
1048.00,0.01
1047.50,0.01
1047.00,0.01
1046.50,0.02
1046.00,0.01
1045.50,0.01
1045.00,0.01
1044.50,0.01
1044.00,0.01
1043.50,0.00
1043.00,0.01
1042.50,0.01
1042.00,0.00
1041.50,0.01
1041.00,0.00
1040.50,0.00
1040.00,0.00
1039.50,0.00
1039.00,0.00
1038.50,0.01
1038.00,0.01
1037.50,0.02
1037.00,0.01
1036.50,0.01
1036.00,0.01
1035.50,0.00
1035.00,0.01
1034.50,0.01
1034.00,0.01
1033.50,0.01
1033.00,0.01
1032.50,0.01
1032.00,0.01
1031.50,0.01
1031.00,0.01
1030.50,0.01
1030.00,0.00
1029.50,0.00
1029.00,0.01
1028.50,0.01
1028.00,0.01
1027.50,0.01
1027.00,0.01
1026.50,0.01
1026.00,0.01
1025.50,0.01
1025.00,0.01
1024.50,0.01
1024.00,0.00
1023.50,0.00
1023.00,0.01
1022.50,0.01
1022.00,0.01
1021.50,0.01
1021.00,0.01
1020.50,0.01
1020.00,0.01
1019.50,0.00
1019.00,0.01
1018.50,0.01
1018.00,0.01
1017.50,0.00
1017.00,0.01
1016.50,0.01
1016.00,0.01
1015.50,0.01
1015.00,0.01
1014.50,0.01
1014.00,0.01
1013.50,0.01
1013.00,0.01
1012.50,0.01
1012.00,0.01
1011.50,0.01
1011.00,0.01
1010.50,0.01
1010.00,0.00
1009.50,0.00
1009.00,0.01
1008.50,0.01
1008.00,0.00
1007.50,0.00
1007.00,0.00
1006.50,0.01
1006.00,0.00
1005.50,0.00
1005.00,0.01
1004.50,0.01
1004.00,0.01
1003.50,0.01
1003.00,0.01
1002.50,0.01
1002.00,0.00
1001.50,0.00
1001.00,0.01
1000.50,0.01
1000.00,0.01
999.50,0.00
999.00,0.00
998.50,0.00
998.00,0.00
997.50,0.00
997.00,0.01
996.50,0.01
996.00,0.01
995.50,0.01
995.00,0.01
994.50,0.01
994.00,0.01
993.50,0.01
993.00,0.01
992.50,0.01
992.00,0.00
991.50,0.00
991.00,0.00
990.50,0.00
990.00,0.01
989.50,0.01
989.00,0.01
988.50,0.02
988.00,0.03
987.50,0.04
987.00,0.04
986.50,0.05
986.00,0.06
985.50,0.07
985.00,0.08
984.50,0.10
984.00,0.12
983.50,0.14
983.00,0.16
982.50,0.18
982.00,0.21
981.50,0.24
981.00,0.26
980.50,0.29
980.00,0.33
979.50,0.37
979.00,0.40
978.50,0.45
978.00,0.50
977.50,0.55
977.00,0.59
976.50,0.64
976.00,0.69
975.50,0.75
975.00,0.81
974.50,0.86
974.00,0.93
973.50,0.99
973.00,1.05
972.50,1.11
972.00,1.19
971.50,1.25
971.00,1.32
970.50,1.38
970.00,1.45
969.50,1.52
969.00,1.58
968.50,1.64
968.00,1.71
967.50,1.77
967.00,1.83
966.50,1.89
966.00,1.94
965.50,2.00
965.00,2.04
964.50,2.09
964.00,2.13
963.50,2.17
963.00,2.21
962.50,2.24
962.00,2.27
961.50,2.30
961.00,2.32
960.50,2.35
960.00,2.38
959.50,2.41
959.00,2.44
958.50,2.47
958.00,2.51
957.50,2.55
957.00,2.59
956.50,2.65
956.00,2.72
955.50,2.80
955.00,2.88
954.50,2.98
954.00,3.10
953.50,3.24
953.00,3.38
952.50,3.54
952.00,3.71
951.50,3.88
951.00,4.05
950.50,4.22
950.00,4.39
949.50,4.56
949.00,4.71
948.50,4.84
948.00,4.98
947.50,5.09
947.00,5.20
946.50,5.30
946.00,5.39
945.50,5.47
945.00,5.54
944.50,5.60
944.00,5.66
943.50,5.70
943.00,5.74
942.50,5.77
942.00,5.79
941.50,5.81
941.00,5.81
940.50,5.81
940.00,5.81
939.50,5.79
939.00,5.76
938.50,5.73
938.00,5.69
937.50,5.63
937.00,5.57
936.50,5.49
936.00,5.40
935.50,5.31
935.00,5.20
934.50,5.09
934.00,4.96
933.50,4.83
933.00,4.68
932.50,4.53
932.00,4.38
931.50,4.21
931.00,4.05
930.50,3.88
930.00,3.71
929.50,3.55
929.00,3.38
928.50,3.23
928.00,3.08
927.50,2.95
927.00,2.82
926.50,2.69
926.00,2.58
925.50,2.46
925.00,2.35
924.50,2.23
924.00,2.12
923.50,2.00
923.00,1.87
922.50,1.73
922.00,1.60
921.50,1.46
921.00,1.32
920.50,1.18
920.00,1.06
919.50,0.94
919.00,0.83
918.50,0.74
918.00,0.66
917.50,0.59
917.00,0.52
916.50,0.47
916.00,0.43
915.50,0.40
915.00,0.37
914.50,0.35
914.00,0.33
913.50,0.32
913.00,0.30
912.50,0.29
912.00,0.29
911.50,0.29
911.00,0.29
910.50,0.30
910.00,0.31
909.50,0.33
909.00,0.34
908.50,0.35
908.00,0.37
907.50,0.39
907.00,0.40
906.50,0.41
906.00,0.43
905.50,0.44
905.00,0.44
904.50,0.44
904.00,0.44
903.50,0.44
903.00,0.42
902.50,0.41
902.00,0.39
901.50,0.37
901.00,0.34
900.50,0.31
900.00,0.29
899.50,0.27
899.00,0.25
898.50,0.22
898.00,0.20
897.50,0.18
897.00,0.16
896.50,0.14
896.00,0.12
895.50,0.11
895.00,0.09
894.50,0.08
894.00,0.07
893.50,0.07
893.00,0.06
892.50,0.05
892.00,0.04
891.50,0.04
891.00,0.03
890.50,0.03
890.00,0.02
889.50,0.02
889.00,0.02
888.50,0.01
888.00,0.01
887.50,0.01
887.00,0.01
886.50,0.01
886.00,0.01
885.50,0.01
885.00,0.01
884.50,0.01
884.00,0.01
883.50,0.01
883.00,0.01
882.50,0.01
882.00,0.00
881.50,0.01
881.00,0.01
880.50,0.01
880.00,0.00
879.50,0.00
879.00,0.01
878.50,0.01
878.00,0.01
877.50,0.00
877.00,0.00
876.50,0.01
876.00,0.01
875.50,0.01
875.00,0.00
874.50,0.01
874.00,0.01
873.50,0.00
873.00,0.00
872.50,0.01
872.00,0.01
871.50,0.01
871.00,0.02
870.50,0.02
870.00,0.01
869.50,0.00
869.00,0.00
868.50,0.01
868.00,0.01
867.50,0.01
867.00,0.01
866.50,0.01
866.00,0.01
865.50,0.01
865.00,0.01
864.50,0.01
864.00,0.01
863.50,0.00
863.00,0.00
862.50,0.01
862.00,0.01
861.50,0.00
861.00,0.01
860.50,0.01
860.00,0.01
859.50,0.00
859.00,0.01
858.50,0.01
858.00,0.01
857.50,0.01
857.00,0.00
856.50,0.01
856.00,0.00
855.50,0.00
855.00,0.00
854.50,0.00
854.00,0.00
853.50,0.01
853.00,0.01
852.50,0.01
852.00,0.01
851.50,0.01
851.00,0.00
850.50,0.01
850.00,0.01
849.50,0.01
849.00,0.01
848.50,0.01
848.00,0.01
847.50,0.00
847.00,0.01
846.50,0.01
846.00,0.00
845.50,0.00
845.00,0.00
844.50,0.01
844.00,0.01
843.50,0.01
843.00,0.01
842.50,0.01
842.00,0.01
841.50,0.00
841.00,0.01
840.50,0.01
840.00,0.00
839.50,0.00
839.00,0.01
838.50,0.01
838.00,0.01
837.50,0.01
837.00,0.01
836.50,0.01
836.00,0.01
835.50,0.01
835.00,0.01
834.50,0.02
834.00,0.01
833.50,0.00
833.00,0.00
832.50,0.01
832.00,0.01
831.50,0.02
831.00,0.02
830.50,0.02
830.00,0.02
829.50,0.02
829.00,0.02
828.50,0.03
828.00,0.02
827.50,0.01
827.00,0.01
826.50,0.02
826.00,0.02
825.50,0.01
825.00,0.02
824.50,0.01
824.00,0.01
823.50,0.01
823.00,0.02
822.50,0.02
822.00,0.02
821.50,0.00
821.00,0.00
820.50,0.00
820.00,0.01
819.50,0.01
819.00,0.01
818.50,0.01
818.00,0.01
817.50,0.00
817.00,0.00
816.50,0.01
816.00,0.01
815.50,0.01
815.00,0.01
814.50,0.01
814.00,0.01
813.50,0.01
813.00,0.01
812.50,0.02
812.00,0.02
811.50,0.01
811.00,0.01
810.50,0.01
810.00,0.00
809.50,0.01
809.00,0.01
808.50,0.00
808.00,0.00
807.50,0.01
807.00,0.01
806.50,0.01
806.00,0.01
805.50,0.01
805.00,0.01
804.50,0.01
804.00,0.01
803.50,0.01
803.00,0.01
802.50,0.01
802.00,0.01
801.50,0.00
801.00,0.01
800.50,0.01
800.00,0.01
799.50,0.01
799.00,0.01
798.50,0.01
798.00,0.00
797.50,0.00
797.00,0.00
796.50,0.01
796.00,0.01
795.50,0.00
795.00,0.01
794.50,0.01
794.00,0.01
793.50,0.00
793.00,0.00
792.50,0.01
792.00,0.01
791.50,0.00
791.00,0.01
790.50,0.01
790.00,0.01
789.50,0.00
789.00,0.01
788.50,0.01
788.00,0.01
787.50,0.01
787.00,0.01
786.50,0.01
786.00,0.01
785.50,0.01
785.00,0.01
784.50,0.01
784.00,0.01
783.50,0.01
783.00,0.01
782.50,0.01
782.00,0.01
781.50,0.01
781.00,0.01
780.50,0.01
780.00,0.01
779.50,0.00
779.00,0.01
778.50,0.01
778.00,0.01
777.50,0.01
777.00,0.00
776.50,0.00
776.00,0.00
775.50,0.01
775.00,0.01
774.50,0.01
774.00,0.01
773.50,0.01
773.00,0.02
772.50,0.02
772.00,0.02
771.50,0.01
771.00,0.02
770.50,0.02
770.00,0.01
769.50,0.01
769.00,0.02
768.50,0.02
768.00,0.02
767.50,0.02
767.00,0.02
766.50,0.01
766.00,0.01
765.50,0.00
765.00,0.00
764.50,0.00
764.00,0.01
763.50,0.02
763.00,0.02
762.50,0.01
762.00,0.01
761.50,0.01
761.00,0.01
760.50,0.02
760.00,0.01
759.50,0.01
759.00,0.00
758.50,0.00
758.00,0.00
757.50,0.00
757.00,0.01
756.50,0.01
756.00,0.01
755.50,0.00
755.00,0.00
754.50,0.01
754.00,0.00
753.50,0.00
753.00,0.01
752.50,0.01
752.00,0.03
751.50,0.04
751.00,0.07
750.50,0.10
750.00,0.13
749.50,0.18
749.00,0.22
748.50,0.27
748.00,0.33
747.50,0.40
747.00,0.48
746.50,0.55
746.00,0.63
745.50,0.70
745.00,0.78
744.50,0.86
744.00,0.93
743.50,1.01
743.00,1.08
742.50,1.15
742.00,1.22
741.50,1.29
741.00,1.36
740.50,1.42
740.00,1.50
739.50,1.57
739.00,1.65
738.50,1.72
738.00,1.79
737.50,1.87
737.00,1.93
736.50,1.99
736.00,2.05
735.50,2.11
735.00,2.17
734.50,2.23
734.00,2.28
733.50,2.33
733.00,2.38
732.50,2.41
732.00,2.44
731.50,2.47
731.00,2.50
730.50,2.51
730.00,2.53
729.50,2.54
729.00,2.55
728.50,2.56
728.00,2.56
727.50,2.57
727.00,2.57
726.50,2.56
726.00,2.55
725.50,2.53
725.00,2.51
724.50,2.49
724.00,2.48
723.50,2.46
723.00,2.44
722.50,2.41
722.00,2.37
721.50,2.32
721.00,2.28
720.50,2.22
720.00,2.17
719.50,2.11
719.00,2.05
718.50,1.98
718.00,1.90
717.50,1.82
717.00,1.73
716.50,1.63
716.00,1.53
715.50,1.42
715.00,1.30
714.50,1.18
714.00,1.06
713.50,0.95
713.00,0.85
712.50,0.74
712.00,0.64
711.50,0.55
711.00,0.47
710.50,0.40
710.00,0.34
709.50,0.30
709.00,0.26
708.50,0.21
708.00,0.18
707.50,0.15
707.00,0.13
706.50,0.12
706.00,0.11
705.50,0.11
705.00,0.11
704.50,0.10
704.00,0.11
703.50,0.11
703.00,0.11
702.50,0.12
702.00,0.12
701.50,0.12
701.00,0.11
700.50,0.11
700.00,0.12
699.50,0.13
699.00,0.14
698.50,0.14
698.00,0.14
697.50,0.13
697.00,0.13
696.50,0.13
696.00,0.13
695.50,0.14
695.00,0.14
694.50,0.14
694.00,0.13
693.50,0.13
693.00,0.12
692.50,0.12
692.00,0.12
691.50,0.12
691.00,0.11
690.50,0.10
690.00,0.10
689.50,0.11
689.00,0.12
688.50,0.12
688.00,0.13
687.50,0.14
687.00,0.14
686.50,0.15
686.00,0.16
685.50,0.18
685.00,0.20
684.50,0.22
684.00,0.24
683.50,0.27
683.00,0.30
682.50,0.34
682.00,0.38
681.50,0.42
681.00,0.46
680.50,0.49
680.00,0.53
679.50,0.58
679.00,0.63
678.50,0.67
678.00,0.72
677.50,0.76
677.00,0.81
676.50,0.85
676.00,0.89
675.50,0.93
675.00,0.97
674.50,1.00
674.00,1.03
673.50,1.06
673.00,1.09
672.50,1.11
672.00,1.13
671.50,1.15
671.00,1.17
670.50,1.18
670.00,1.18
669.50,1.18
669.00,1.17
668.50,1.15
668.00,1.13
667.50,1.12
667.00,1.11
666.50,1.10
666.00,1.08
665.50,1.06
665.00,1.03
664.50,0.99
664.00,0.95
663.50,0.92
663.00,0.88
662.50,0.84
662.00,0.80
661.50,0.78
661.00,0.78
660.50,0.82
660.00,0.92
659.50,1.11
659.00,1.41
658.50,1.83
658.00,2.38
657.50,3.06
657.00,3.83
656.50,4.64
656.00,5.44
655.50,6.21
655.00,6.91
654.50,7.53
654.00,8.08
653.50,8.56
653.00,8.98
652.50,9.33
652.00,9.63
651.50,9.88
651.00,10.10
650.50,10.27
650.00,10.42
649.50,10.54
649.00,10.63
648.50,10.69
648.00,10.73
647.50,10.75
647.00,10.76
646.50,10.75
646.00,10.73
645.50,10.69
645.00,10.64
644.50,10.57
644.00,10.49
643.50,10.40
643.00,10.30
642.50,10.19
642.00,10.07
641.50,9.96
641.00,9.83
640.50,9.70
640.00,9.56
639.50,9.43
639.00,9.29
638.50,9.16
638.00,9.02
637.50,8.90
637.00,8.79
636.50,8.67
636.00,8.56
635.50,8.45
635.00,8.35
634.50,8.26
634.00,8.18
633.50,8.12
633.00,8.05
632.50,7.99
632.00,7.92
631.50,7.85
631.00,7.79
630.50,7.73
630.00,7.69
629.50,7.65
629.00,7.62
628.50,7.59
628.00,7.57
627.50,7.55
627.00,7.53
626.50,7.52
626.00,7.52
625.50,7.53
625.00,7.54
624.50,7.55
624.00,7.56
623.50,7.57
623.00,7.58
622.50,7.59
622.00,7.61
621.50,7.64
621.00,7.68
620.50,7.71
620.00,7.74
619.50,7.76
619.00,7.77
618.50,7.78
618.00,7.78
617.50,7.79
617.00,7.78
616.50,7.77
616.00,7.75
615.50,7.74
615.00,7.73
614.50,7.72
614.00,7.72
613.50,7.72
613.00,7.72
612.50,7.71
612.00,7.68
611.50,7.63
611.00,7.55
610.50,7.45
610.00,7.32
609.50,7.17
609.00,6.99
608.50,6.77
608.00,6.52
607.50,6.25
607.00,5.95
606.50,5.62
606.00,5.25
605.50,4.85
605.00,4.45
604.50,4.05
604.00,3.69
603.50,3.37
603.00,3.10
602.50,2.88
602.00,2.70
601.50,2.58
601.00,2.51
600.50,2.48
600.00,2.47
599.50,2.50
599.00,2.56
598.50,2.64
598.00,2.73
597.50,2.84
597.00,2.96
596.50,3.09
596.00,3.21
595.50,3.32
595.00,3.43
594.50,3.51
594.00,3.59
593.50,3.65
593.00,3.70
592.50,3.74
592.00,3.75
591.50,3.75
591.00,3.73
590.50,3.69
590.00,3.63
589.50,3.56
589.00,3.48
588.50,3.38
588.00,3.27
587.50,3.16
587.00,3.05
586.50,2.94
586.00,2.83
585.50,2.70
585.00,2.56
584.50,2.43
584.00,2.30
583.50,2.19
583.00,2.09
582.50,1.99
582.00,1.89
581.50,1.80
581.00,1.71
580.50,1.62
580.00,1.54
579.50,1.47
579.00,1.40
578.50,1.34
578.00,1.27
577.50,1.21
577.00,1.17
576.50,1.13
576.00,1.09
575.50,1.05
575.00,1.03
574.50,1.00
574.00,0.97
573.50,0.94
573.00,0.91
572.50,0.89
572.00,0.87
571.50,0.84
571.00,0.83
570.50,0.81
570.00,0.79
569.50,0.77
569.00,0.75
568.50,0.73
568.00,0.71
567.50,0.71
567.00,0.71
566.50,0.70
566.00,0.69
565.50,0.67
565.00,0.65
564.50,0.64
564.00,0.63
563.50,0.62
563.00,0.62
562.50,0.60
562.00,0.59
561.50,0.58
561.00,0.59
560.50,0.60
560.00,0.59
559.50,0.57
559.00,0.55
558.50,0.54
558.00,0.54
557.50,0.54
557.00,0.55
556.50,0.54
556.00,0.52
555.50,0.51
555.00,0.51
554.50,0.51
554.00,0.49
553.50,0.48
553.00,0.47
552.50,0.47
552.00,0.46
551.50,0.45
551.00,0.45
550.50,0.44
550.00,0.42
549.50,0.41
549.00,0.42
548.50,0.42
548.00,0.41
547.50,0.40
547.00,0.39
546.50,0.38
546.00,0.38
545.50,0.38
545.00,0.39
544.50,0.38
544.00,0.36
543.50,0.35
543.00,0.35
542.50,0.35
542.00,0.34
541.50,0.33
541.00,0.34
540.50,0.34
540.00,0.34
539.50,0.32
539.00,0.31
538.50,0.31
538.00,0.30
537.50,0.30
537.00,0.30
536.50,0.30
536.00,0.29
535.50,0.26
535.00,0.26
534.50,0.27
534.00,0.27
533.50,0.27
533.00,0.26
532.50,0.25
532.00,0.23
531.50,0.22
531.00,0.22
530.50,0.24
530.00,0.25
529.50,0.25
529.00,0.25
528.50,0.23
528.00,0.20
527.50,0.18
527.00,0.17
526.50,0.17
526.00,0.16
525.50,0.15
525.00,0.15
524.50,0.17
524.00,0.17
523.50,0.17
523.00,0.17
522.50,0.16
522.00,0.15
521.50,0.14
521.00,0.15
520.50,0.16
520.00,0.17
519.50,0.16
519.00,0.16
518.50,0.15
518.00,0.13
517.50,0.12
517.00,0.13
516.50,0.15
516.00,0.15
515.50,0.14
515.00,0.14
514.50,0.14
514.00,0.13
513.50,0.13
513.00,0.14
512.50,0.16
512.00,0.16
511.50,0.14
511.00,0.14
510.50,0.14
510.00,0.13
509.50,0.13
509.00,0.13
508.50,0.14
508.00,0.14
507.50,0.13
507.00,0.12
506.50,0.11
506.00,0.09
505.50,0.08
505.00,0.08
504.50,0.08
504.00,0.08
503.50,0.07
503.00,0.07
502.50,0.07
502.00,0.06
501.50,0.05
501.00,0.07
500.50,0.09
500.00,0.09
499.50,0.08
499.00,0.07
498.50,0.07
498.00,0.05
497.50,0.04
497.00,0.05
496.50,0.08
496.00,0.09
495.50,0.10
495.00,0.12
494.50,0.12
494.00,0.09
493.50,0.06
493.00,0.06
492.50,0.07
492.00,0.07
491.50,0.06
491.00,0.08
490.50,0.10
490.00,0.10
489.50,0.09
489.00,0.07
488.50,0.07
488.00,0.06
487.50,0.05
487.00,0.04
486.50,0.03
486.00,0.01
485.50,0.02
485.00,0.03
484.50,0.07
484.00,0.08
483.50,0.06
483.00,0.04
482.50,0.02
482.00,0.02
481.50,0.04
481.00,0.04
480.50,0.04
480.00,0.03
479.50,0.04
479.00,0.09
478.50,0.12
478.00,0.10
477.50,0.06
477.00,0.04
476.50,0.04
476.00,0.04
475.50,0.07
475.00,0.07
474.50,0.05
474.00,0.05
473.50,0.06
473.00,0.06
472.50,0.07
472.00,0.04
471.50,0.01
471.00,0.01
470.50,0.02
470.00,0.03
469.50,0.04
469.00,0.05
468.50,0.06
468.00,0.06
467.50,0.04
467.00,0.06
466.50,0.09
466.00,0.12
465.50,0.12
465.00,0.10
464.50,0.06
464.00,0.04
463.50,0.04
463.00,0.01
462.50,0.06
462.00,0.09
461.50,0.09
461.00,0.08
460.50,0.06
460.00,0.04
459.50,0.07
459.00,0.11
458.50,0.15
458.00,0.19
457.50,0.21
457.00,0.17
456.50,0.13
456.00,0.13
455.50,0.15
455.00,0.12
454.50,0.05
454.00,0.03
453.50,0.05
453.00,0.07
452.50,0.08
452.00,0.11
451.50,0.14
451.00,0.13
450.50,0.11
450.00,0.11
449.50,0.11
449.00,0.03
448.50,0.06
448.00,0.10
447.50,0.07
447.00,0.04
446.50,0.03
446.00,0.02
445.50,0.02
445.00,0.02
444.50,0.02
444.00,0.02
443.50,0.06
443.00,0.09
442.50,0.05
442.00,0.02
441.50,0.03
441.00,0.07
440.50,0.09
440.00,0.10
439.50,0.11
439.00,0.09
438.50,0.06
438.00,0.09
437.50,0.18
437.00,0.21
436.50,0.18
436.00,0.14
435.50,0.10
435.00,0.05
434.50,0.04
434.00,0.06
433.50,0.05
433.00,0.06
432.50,0.08
432.00,0.08
431.50,0.08
431.00,0.10
430.50,0.10
430.00,0.07
429.50,0.05
429.00,0.05
428.50,0.06
428.00,0.09
427.50,0.06
427.00,0.08
426.50,0.13
426.00,0.13
425.50,0.08
425.00,0.03
424.50,0.04
424.00,0.08
423.50,0.11
423.00,0.07
422.50,0.09
422.00,0.12
421.50,0.14
421.00,0.12
420.50,0.11
420.00,0.24
419.50,0.52
419.00,0.58
418.50,0.38
418.00,0.31
417.50,0.22
417.00,0.15
416.50,0.11
416.00,0.07
415.50,0.04
415.00,0.09
414.50,0.20
414.00,0.21
413.50,0.13
413.00,0.06
412.50,0.05
412.00,0.10
411.50,0.17
411.00,0.16
410.50,0.12
410.00,0.09
409.50,0.09
409.00,0.14
408.50,0.12
408.00,0.14
407.50,0.28
407.00,0.26
406.50,0.10
406.00,0.14
405.50,0.20
405.00,0.22
404.50,0.22
404.00,0.12
403.50,0.05
403.00,0.08
402.50,0.07
402.00,0.23
401.50,0.46
401.00,0.49
400.50,0.26
400.00,0.11
