Created as New Dataset,Sample 162 By irlear Date Thursday, June 06 2019
cm-1,%T
4000.00,79.32
3999.50,79.35
3999.00,79.37
3998.50,79.39
3998.00,79.41
3997.50,79.43
3997.00,79.45
3996.50,79.47
3996.00,79.49
3995.50,79.52
3995.00,79.55
3994.50,79.57
3994.00,79.59
3993.50,79.61
3993.00,79.63
3992.50,79.65
3992.00,79.67
3991.50,79.70
3991.00,79.73
3990.50,79.75
3990.00,79.77
3989.50,79.79
3989.00,79.81
3988.50,79.83
3988.00,79.85
3987.50,79.87
3987.00,79.90
3986.50,79.92
3986.00,79.95
3985.50,79.98
3985.00,80.00
3984.50,80.02
3984.00,80.04
3983.50,80.06
3983.00,80.07
3982.50,80.09
3982.00,80.11
3981.50,80.13
3981.00,80.15
3980.50,80.17
3980.00,80.19
3979.50,80.21
3979.00,80.23
3978.50,80.25
3978.00,80.28
3977.50,80.30
3977.00,80.32
3976.50,80.34
3976.00,80.36
3975.50,80.38
3975.00,80.40
3974.50,80.42
3974.00,80.44
3973.50,80.46
3973.00,80.48
3972.50,80.50
3972.00,80.52
3971.50,80.54
3971.00,80.55
3970.50,80.58
3970.00,80.60
3969.50,80.62
3969.00,80.64
3968.50,80.66
3968.00,80.68
3967.50,80.69
3967.00,80.71
3966.50,80.72
3966.00,80.74
3965.50,80.76
3965.00,80.78
3964.50,80.80
3964.00,80.82
3963.50,80.84
3963.00,80.86
3962.50,80.89
3962.00,80.91
3961.50,80.92
3961.00,80.93
3960.50,80.95
3960.00,80.96
3959.50,80.97
3959.00,80.99
3958.50,81.00
3958.00,81.02
3957.50,81.03
3957.00,81.05
3956.50,81.06
3956.00,81.06
3955.50,81.07
3955.00,81.08
3954.50,81.09
3954.00,81.10
3953.50,81.11
3953.00,81.12
3952.50,81.12
3952.00,81.11
3951.50,81.11
3951.00,81.12
3950.50,81.14
3950.00,81.16
3949.50,81.17
3949.00,81.19
3948.50,81.20
3948.00,81.22
3947.50,81.22
3947.00,81.22
3946.50,81.21
3946.00,81.21
3945.50,81.21
3945.00,81.21
3944.50,81.20
3944.00,81.21
3943.50,81.23
3943.00,81.25
3942.50,81.27
3942.00,81.29
3941.50,81.30
3941.00,81.31
3940.50,81.33
3940.00,81.34
3939.50,81.35
3939.00,81.36
3938.50,81.37
3938.00,81.37
3937.50,81.38
3937.00,81.39
3936.50,81.40
3936.00,81.41
3935.50,81.42
3935.00,81.43
3934.50,81.43
3934.00,81.43
3933.50,81.45
3933.00,81.46
3932.50,81.47
3932.00,81.47
3931.50,81.48
3931.00,81.48
3930.50,81.49
3930.00,81.50
3929.50,81.51
3929.00,81.50
3928.50,81.49
3928.00,81.48
3927.50,81.46
3927.00,81.44
3926.50,81.42
3926.00,81.43
3925.50,81.45
3925.00,81.49
3924.50,81.51
3924.00,81.52
3923.50,81.51
3923.00,81.49
3922.50,81.47
3922.00,81.45
3921.50,81.44
3921.00,81.44
3920.50,81.45
3920.00,81.45
3919.50,81.44
3919.00,81.43
3918.50,81.44
3918.00,81.45
3917.50,81.45
3917.00,81.45
3916.50,81.42
3916.00,81.40
3915.50,81.39
3915.00,81.37
3914.50,81.36
3914.00,81.34
3913.50,81.33
3913.00,81.32
3912.50,81.30
3912.00,81.29
3911.50,81.28
3911.00,81.27
3910.50,81.26
3910.00,81.24
3909.50,81.22
3909.00,81.20
3908.50,81.17
3908.00,81.15
3907.50,81.12
3907.00,81.10
3906.50,81.08
3906.00,81.09
3905.50,81.11
3905.00,81.13
3904.50,81.13
3904.00,81.09
3903.50,81.06
3903.00,81.05
3902.50,81.03
3902.00,81.00
3901.50,80.95
3901.00,80.91
3900.50,80.89
3900.00,80.88
3899.50,80.88
3899.00,80.87
3898.50,80.85
3898.00,80.84
3897.50,80.82
3897.00,80.81
3896.50,80.78
3896.00,80.76
3895.50,80.75
3895.00,80.74
3894.50,80.72
3894.00,80.70
3893.50,80.68
3893.00,80.67
3892.50,80.69
3892.00,80.71
3891.50,80.71
3891.00,80.68
3890.50,80.64
3890.00,80.62
3889.50,80.61
3889.00,80.60
3888.50,80.57
3888.00,80.54
3887.50,80.51
3887.00,80.51
3886.50,80.54
3886.00,80.56
3885.50,80.56
3885.00,80.54
3884.50,80.53
3884.00,80.52
3883.50,80.50
3883.00,80.47
3882.50,80.42
3882.00,80.37
3881.50,80.34
3881.00,80.35
3880.50,80.37
3880.00,80.37
3879.50,80.38
3879.00,80.39
3878.50,80.39
3878.00,80.38
3877.50,80.36
3877.00,80.32
3876.50,80.28
3876.00,80.23
3875.50,80.19
3875.00,80.20
3874.50,80.22
3874.00,80.23
3873.50,80.21
3873.00,80.19
3872.50,80.17
3872.00,80.14
3871.50,80.12
3871.00,80.13
3870.50,80.15
3870.00,80.13
3869.50,80.07
3869.00,80.02
3868.50,79.99
3868.00,79.96
3867.50,79.91
3867.00,79.87
3866.50,79.83
3866.00,79.81
3865.50,79.80
3865.00,79.78
3864.50,79.72
3864.00,79.65
3863.50,79.60
3863.00,79.55
3862.50,79.50
3862.00,79.43
3861.50,79.36
3861.00,79.30
3860.50,79.24
3860.00,79.18
3859.50,79.11
3859.00,79.02
3858.50,78.94
3858.00,78.86
3857.50,78.77
3857.00,78.67
3856.50,78.58
3856.00,78.51
3855.50,78.45
3855.00,78.35
3854.50,78.22
3854.00,78.12
3853.50,78.03
3853.00,77.95
3852.50,77.84
3852.00,77.72
3851.50,77.60
3851.00,77.51
3850.50,77.43
3850.00,77.33
3849.50,77.20
3849.00,77.07
3848.50,76.94
3848.00,76.82
3847.50,76.70
3847.00,76.58
3846.50,76.45
3846.00,76.31
3845.50,76.17
3845.00,76.03
3844.50,75.88
3844.00,75.71
3843.50,75.56
3843.00,75.42
3842.50,75.30
3842.00,75.18
3841.50,75.05
3841.00,74.93
3840.50,74.80
3840.00,74.68
3839.50,74.57
3839.00,74.47
3838.50,74.35
3838.00,74.19
3837.50,74.06
3837.00,73.96
3836.50,73.89
3836.00,73.81
3835.50,73.70
3835.00,73.57
3834.50,73.44
3834.00,73.34
3833.50,73.26
3833.00,73.19
3832.50,73.12
3832.00,73.04
3831.50,72.97
3831.00,72.90
3830.50,72.84
3830.00,72.79
3829.50,72.73
3829.00,72.66
3828.50,72.59
3828.00,72.53
3827.50,72.48
3827.00,72.44
3826.50,72.40
3826.00,72.37
3825.50,72.34
3825.00,72.30
3824.50,72.25
3824.00,72.20
3823.50,72.13
3823.00,72.07
3822.50,72.01
3822.00,72.01
3821.50,72.05
3821.00,72.05
3820.50,72.00
3820.00,71.96
3819.50,71.92
3819.00,71.86
3818.50,71.80
3818.00,71.73
3817.50,71.66
3817.00,71.62
3816.50,71.57
3816.00,71.49
3815.50,71.42
3815.00,71.36
3814.50,71.32
3814.00,71.26
3813.50,71.19
3813.00,71.11
3812.50,71.03
3812.00,70.95
3811.50,70.86
3811.00,70.78
3810.50,70.69
3810.00,70.60
3809.50,70.51
3809.00,70.42
3808.50,70.33
3808.00,70.25
3807.50,70.17
3807.00,70.07
3806.50,69.97
3806.00,69.89
3805.50,69.82
3805.00,69.74
3804.50,69.64
3804.00,69.54
3803.50,69.44
3803.00,69.36
3802.50,69.29
3802.00,69.21
3801.50,69.08
3801.00,68.95
3800.50,68.87
3800.00,68.81
3799.50,68.73
3799.00,68.64
3798.50,68.53
3798.00,68.40
3797.50,68.28
3797.00,68.14
3796.50,67.99
3796.00,67.86
3795.50,67.74
3795.00,67.63
3794.50,67.51
3794.00,67.36
3793.50,67.21
3793.00,67.04
3792.50,66.87
3792.00,66.70
3791.50,66.53
3791.00,66.34
3790.50,66.15
3790.00,65.95
3789.50,65.75
3789.00,65.55
3788.50,65.35
3788.00,65.14
3787.50,64.94
3787.00,64.73
3786.50,64.53
3786.00,64.32
3785.50,64.10
3785.00,63.87
3784.50,63.64
3784.00,63.42
3783.50,63.23
3783.00,63.04
3782.50,62.85
3782.00,62.65
3781.50,62.45
3781.00,62.26
3780.50,62.06
3780.00,61.85
3779.50,61.64
3779.00,61.45
3778.50,61.29
3778.00,61.14
3777.50,60.98
3777.00,60.82
3776.50,60.65
3776.00,60.48
3775.50,60.32
3775.00,60.16
3774.50,60.01
3774.00,59.86
3773.50,59.72
3773.00,59.58
3772.50,59.44
3772.00,59.31
3771.50,59.19
3771.00,59.06
3770.50,58.93
3770.00,58.79
3769.50,58.67
3769.00,58.57
3768.50,58.49
3768.00,58.40
3767.50,58.31
3767.00,58.22
3766.50,58.14
3766.00,58.07
3765.50,58.00
3765.00,57.95
3764.50,57.91
3764.00,57.87
3763.50,57.83
3763.00,57.80
3762.50,57.75
3762.00,57.71
3761.50,57.66
3761.00,57.62
3760.50,57.61
3760.00,57.63
3759.50,57.64
3759.00,57.64
3758.50,57.64
3758.00,57.63
3757.50,57.64
3757.00,57.66
3756.50,57.69
3756.00,57.73
3755.50,57.75
3755.00,57.76
3754.50,57.77
3754.00,57.77
3753.50,57.79
3753.00,57.86
3752.50,58.00
3752.00,58.12
3751.50,58.21
3751.00,58.27
3750.50,58.36
3750.00,58.48
3749.50,58.59
3749.00,58.68
3748.50,58.76
3748.00,58.83
3747.50,58.90
3747.00,58.95
3746.50,58.97
3746.00,58.97
3745.50,58.99
3745.00,59.16
3744.50,59.46
3744.00,59.67
3743.50,59.79
3743.00,59.88
3742.50,59.97
3742.00,60.08
3741.50,60.20
3741.00,60.31
3740.50,60.40
3740.00,60.46
3739.50,60.52
3739.00,60.57
3738.50,60.62
3738.00,60.67
3737.50,60.68
3737.00,60.68
3736.50,60.66
3736.00,60.63
3735.50,60.59
3735.00,60.52
3734.50,60.47
3734.00,60.44
3733.50,60.40
3733.00,60.34
3732.50,60.21
3732.00,60.04
3731.50,59.88
3731.00,59.75
3730.50,59.62
3730.00,59.47
3729.50,59.30
3729.00,59.13
3728.50,58.96
3728.00,58.78
3727.50,58.57
3727.00,58.33
3726.50,58.07
3726.00,57.82
3725.50,57.58
3725.00,57.37
3724.50,57.17
3724.00,56.98
3723.50,56.77
3723.00,56.53
3722.50,56.25
3722.00,56.00
3721.50,55.80
3721.00,55.65
3720.50,55.49
3720.00,55.30
3719.50,55.09
3719.00,54.87
3718.50,54.67
3718.00,54.49
3717.50,54.31
3717.00,54.13
3716.50,53.93
3716.00,53.72
3715.50,53.51
3715.00,53.29
3714.50,53.08
3714.00,52.88
3713.50,52.67
3713.00,52.41
3712.50,52.08
3712.00,51.75
3711.50,51.50
3711.00,51.32
3710.50,51.12
3710.00,50.86
3709.50,50.58
3709.00,50.33
3708.50,50.14
3708.00,49.98
3707.50,49.81
3707.00,49.63
3706.50,49.43
3706.00,49.24
3705.50,49.07
3705.00,48.92
3704.50,48.78
3704.00,48.64
3703.50,48.51
3703.00,48.38
3702.50,48.25
3702.00,48.15
3701.50,48.08
3701.00,48.05
3700.50,48.04
3700.00,48.03
3699.50,48.04
3699.00,48.05
3698.50,48.07
3698.00,48.11
3697.50,48.16
3697.00,48.24
3696.50,48.32
3696.00,48.41
3695.50,48.50
3695.00,48.59
3694.50,48.69
3694.00,48.79
3693.50,48.89
3693.00,48.98
3692.50,49.08
3692.00,49.24
3691.50,49.46
3691.00,49.67
3690.50,49.83
3690.00,49.96
3689.50,50.11
3689.00,50.31
3688.50,50.51
3688.00,50.63
3687.50,50.72
3687.00,50.79
3686.50,50.88
3686.00,50.97
3685.50,51.07
3685.00,51.17
3684.50,51.26
3684.00,51.34
3683.50,51.40
3683.00,51.46
3682.50,51.52
3682.00,51.57
3681.50,51.61
3681.00,51.63
3680.50,51.66
3680.00,51.69
3679.50,51.71
3679.00,51.72
3678.50,51.72
3678.00,51.71
3677.50,51.68
3677.00,51.64
3676.50,51.60
3676.00,51.56
3675.50,51.45
3675.00,51.33
3674.50,51.27
3674.00,51.24
3673.50,51.20
3673.00,51.15
3672.50,51.08
3672.00,50.98
3671.50,50.85
3671.00,50.69
3670.50,50.53
3670.00,50.39
3669.50,50.26
3669.00,50.12
3668.50,49.99
3668.00,49.87
3667.50,49.75
3667.00,49.63
3666.50,49.49
3666.00,49.33
3665.50,49.15
3665.00,48.98
3664.50,48.82
3664.00,48.65
3663.50,48.48
3663.00,48.32
3662.50,48.15
3662.00,47.98
3661.50,47.81
3661.00,47.63
3660.50,47.45
3660.00,47.25
3659.50,47.06
3659.00,46.87
3658.50,46.70
3658.00,46.54
3657.50,46.35
3657.00,46.12
3656.50,45.84
3656.00,45.59
3655.50,45.43
3655.00,45.31
3654.50,45.19
3654.00,45.06
3653.50,44.91
3653.00,44.78
3652.50,44.64
3652.00,44.49
3651.50,44.34
3651.00,44.19
3650.50,44.03
3650.00,43.87
3649.50,43.73
3649.00,43.61
3648.50,43.50
3648.00,43.40
3647.50,43.28
3647.00,43.18
3646.50,43.13
3646.00,43.12
3645.50,43.11
3645.00,43.09
3644.50,43.06
3644.00,43.03
3643.50,43.00
3643.00,42.98
3642.50,42.96
3642.00,42.95
3641.50,42.95
3641.00,42.96
3640.50,42.98
3640.00,43.00
3639.50,43.03
3639.00,43.07
3638.50,43.12
3638.00,43.17
3637.50,43.23
3637.00,43.29
3636.50,43.35
3636.00,43.41
3635.50,43.47
3635.00,43.54
3634.50,43.61
3634.00,43.70
3633.50,43.79
3633.00,43.88
3632.50,43.97
3632.00,44.05
3631.50,44.13
3631.00,44.21
3630.50,44.28
3630.00,44.37
3629.50,44.47
3629.00,44.55
3628.50,44.62
3628.00,44.69
3627.50,44.77
3627.00,44.84
3626.50,44.90
3626.00,44.96
3625.50,45.01
3625.00,45.07
3624.50,45.11
3624.00,45.15
3623.50,45.18
3623.00,45.22
3622.50,45.25
3622.00,45.27
3621.50,45.29
3621.00,45.30
3620.50,45.30
3620.00,45.28
3619.50,45.26
3619.00,45.25
3618.50,45.24
3618.00,45.23
3617.50,45.22
3617.00,45.22
3616.50,45.24
3616.00,45.25
3615.50,45.23
3615.00,45.18
3614.50,45.14
3614.00,45.10
3613.50,45.07
3613.00,45.00
3612.50,44.93
3612.00,44.88
3611.50,44.88
3611.00,44.88
3610.50,44.88
3610.00,44.82
3609.50,44.73
3609.00,44.64
3608.50,44.57
3608.00,44.52
3607.50,44.46
3607.00,44.39
3606.50,44.34
3606.00,44.30
3605.50,44.28
3605.00,44.24
3604.50,44.19
3604.00,44.13
3603.50,44.07
3603.00,44.01
3602.50,43.94
3602.00,43.88
3601.50,43.82
3601.00,43.76
3600.50,43.70
3600.00,43.64
3599.50,43.59
3599.00,43.52
3598.50,43.43
3598.00,43.36
3597.50,43.30
3597.00,43.26
3596.50,43.20
3596.00,43.13
3595.50,43.06
3595.00,43.01
3594.50,42.98
3594.00,42.95
3593.50,42.91
3593.00,42.87
3592.50,42.84
3592.00,42.82
3591.50,42.81
3591.00,42.80
3590.50,42.79
3590.00,42.78
3589.50,42.75
3589.00,42.71
3588.50,42.67
3588.00,42.64
3587.50,42.62
3587.00,42.59
3586.50,42.55
3586.00,42.54
3585.50,42.56
3585.00,42.59
3584.50,42.62
3584.00,42.66
3583.50,42.71
3583.00,42.79
3582.50,42.87
3582.00,42.96
3581.50,43.03
3581.00,43.10
3580.50,43.17
3580.00,43.23
3579.50,43.28
3579.00,43.34
3578.50,43.41
3578.00,43.47
3577.50,43.52
3577.00,43.57
3576.50,43.62
3576.00,43.67
3575.50,43.72
3575.00,43.78
3574.50,43.82
3574.00,43.87
3573.50,43.91
3573.00,43.96
3572.50,44.01
3572.00,44.06
3571.50,44.12
3571.00,44.18
3570.50,44.23
3570.00,44.29
3569.50,44.34
3569.00,44.38
3568.50,44.41
3568.00,44.44
3567.50,44.48
3567.00,44.52
3566.50,44.55
3566.00,44.57
3565.50,44.62
3565.00,44.69
3564.50,44.76
3564.00,44.81
3563.50,44.85
3563.00,44.89
3562.50,44.93
3562.00,44.98
3561.50,45.01
3561.00,45.03
3560.50,45.05
3560.00,45.06
3559.50,45.09
3559.00,45.12
3558.50,45.15
3558.00,45.18
3557.50,45.19
3557.00,45.21
3556.50,45.22
3556.00,45.24
3555.50,45.26
3555.00,45.28
3554.50,45.30
3554.00,45.31
3553.50,45.32
3553.00,45.33
3552.50,45.32
3552.00,45.31
3551.50,45.30
3551.00,45.30
3550.50,45.31
3550.00,45.32
3549.50,45.33
3549.00,45.34
3548.50,45.35
3548.00,45.35
3547.50,45.34
3547.00,45.33
3546.50,45.33
3546.00,45.33
3545.50,45.32
3545.00,45.30
3544.50,45.28
3544.00,45.27
3543.50,45.26
3543.00,45.25
3542.50,45.23
3542.00,45.22
3541.50,45.20
3541.00,45.19
3540.50,45.17
3540.00,45.16
3539.50,45.15
3539.00,45.14
3538.50,45.14
3538.00,45.15
3537.50,45.15
3537.00,45.13
3536.50,45.10
3536.00,45.06
3535.50,45.04
3535.00,45.03
3534.50,45.03
3534.00,45.02
3533.50,45.02
3533.00,45.01
3532.50,45.01
3532.00,45.00
3531.50,44.99
3531.00,44.98
3530.50,44.98
3530.00,44.97
3529.50,44.97
3529.00,44.96
3528.50,44.96
3528.00,44.95
3527.50,44.94
3527.00,44.93
3526.50,44.93
3526.00,44.94
3525.50,44.95
3525.00,44.97
3524.50,44.98
3524.00,44.98
3523.50,44.96
3523.00,44.93
3522.50,44.90
3522.00,44.90
3521.50,44.91
3521.00,44.92
3520.50,44.93
3520.00,44.93
3519.50,44.94
3519.00,44.94
3518.50,44.95
3518.00,44.96
3517.50,44.96
3517.00,44.98
3516.50,44.99
3516.00,45.00
3515.50,45.02
3515.00,45.04
3514.50,45.06
3514.00,45.07
3513.50,45.08
3513.00,45.08
3512.50,45.09
3512.00,45.10
3511.50,45.11
3511.00,45.13
3510.50,45.15
3510.00,45.15
3509.50,45.14
3509.00,45.14
3508.50,45.14
3508.00,45.17
3507.50,45.19
3507.00,45.22
3506.50,45.24
3506.00,45.26
3505.50,45.29
3505.00,45.31
3504.50,45.33
3504.00,45.35
3503.50,45.36
3503.00,45.36
3502.50,45.35
3502.00,45.35
3501.50,45.36
3501.00,45.37
3500.50,45.38
3500.00,45.40
3499.50,45.42
3499.00,45.44
3498.50,45.46
3498.00,45.48
3497.50,45.50
3497.00,45.51
3496.50,45.51
3496.00,45.52
3495.50,45.53
3495.00,45.54
3494.50,45.55
3494.00,45.57
3493.50,45.58
3493.00,45.60
3492.50,45.61
3492.00,45.63
3491.50,45.64
3491.00,45.66
3490.50,45.68
3490.00,45.70
3489.50,45.73
3489.00,45.75
3488.50,45.77
3488.00,45.78
3487.50,45.79
3487.00,45.81
3486.50,45.83
3486.00,45.85
3485.50,45.86
3485.00,45.87
3484.50,45.89
3484.00,45.92
3483.50,45.95
3483.00,45.97
3482.50,45.98
3482.00,46.00
3481.50,46.02
3481.00,46.05
3480.50,46.07
3480.00,46.09
3479.50,46.11
3479.00,46.12
3478.50,46.14
3478.00,46.15
3477.50,46.17
3477.00,46.19
3476.50,46.22
3476.00,46.24
3475.50,46.25
3475.00,46.27
3474.50,46.28
3474.00,46.30
3473.50,46.32
3473.00,46.34
3472.50,46.37
3472.00,46.40
3471.50,46.42
3471.00,46.45
3470.50,46.48
3470.00,46.51
3469.50,46.53
3469.00,46.56
3468.50,46.58
3468.00,46.60
3467.50,46.62
3467.00,46.63
3466.50,46.64
3466.00,46.66
3465.50,46.68
3465.00,46.70
3464.50,46.73
3464.00,46.75
3463.50,46.77
3463.00,46.79
3462.50,46.81
3462.00,46.84
3461.50,46.87
3461.00,46.90
3460.50,46.93
3460.00,46.95
3459.50,46.97
3459.00,46.99
3458.50,47.01
3458.00,47.04
3457.50,47.06
3457.00,47.09
3456.50,47.12
3456.00,47.15
3455.50,47.18
3455.00,47.21
3454.50,47.24
3454.00,47.27
3453.50,47.30
3453.00,47.33
3452.50,47.36
3452.00,47.39
3451.50,47.42
3451.00,47.45
3450.50,47.48
3450.00,47.51
3449.50,47.55
3449.00,47.60
3448.50,47.65
3448.00,47.68
3447.50,47.69
3447.00,47.69
3446.50,47.71
3446.00,47.74
3445.50,47.78
3445.00,47.82
3444.50,47.85
3444.00,47.89
3443.50,47.92
3443.00,47.95
3442.50,47.96
3442.00,47.99
3441.50,48.02
3441.00,48.05
3440.50,48.09
3440.00,48.12
3439.50,48.16
3439.00,48.20
3438.50,48.23
3438.00,48.26
3437.50,48.29
3437.00,48.32
3436.50,48.35
3436.00,48.38
3435.50,48.41
3435.00,48.44
3434.50,48.46
3434.00,48.49
3433.50,48.51
3433.00,48.54
3432.50,48.57
3432.00,48.60
3431.50,48.63
3431.00,48.66
3430.50,48.69
3430.00,48.72
3429.50,48.75
3429.00,48.78
3428.50,48.80
3428.00,48.82
3427.50,48.84
3427.00,48.87
3426.50,48.89
3426.00,48.92
3425.50,48.96
3425.00,48.99
3424.50,49.02
3424.00,49.05
3423.50,49.08
3423.00,49.11
3422.50,49.14
3422.00,49.18
3421.50,49.21
3421.00,49.24
3420.50,49.26
3420.00,49.27
3419.50,49.29
3419.00,49.32
3418.50,49.35
3418.00,49.38
3417.50,49.41
3417.00,49.44
3416.50,49.47
3416.00,49.50
3415.50,49.53
3415.00,49.57
3414.50,49.60
3414.00,49.63
3413.50,49.67
3413.00,49.69
3412.50,49.72
3412.00,49.74
3411.50,49.77
3411.00,49.80
3410.50,49.83
3410.00,49.86
3409.50,49.89
3409.00,49.92
3408.50,49.94
3408.00,49.96
3407.50,49.99
3407.00,50.02
3406.50,50.05
3406.00,50.08
3405.50,50.11
3405.00,50.15
3404.50,50.18
3404.00,50.21
3403.50,50.25
3403.00,50.29
3402.50,50.33
3402.00,50.36
3401.50,50.39
3401.00,50.42
3400.50,50.45
3400.00,50.49
3399.50,50.52
3399.00,50.55
3398.50,50.58
3398.00,50.61
3397.50,50.63
3397.00,50.66
3396.50,50.69
3396.00,50.73
3395.50,50.77
3395.00,50.81
3394.50,50.85
3394.00,50.89
3393.50,50.93
3393.00,50.96
3392.50,50.99
3392.00,51.02
3391.50,51.05
3391.00,51.08
3390.50,51.11
3390.00,51.14
3389.50,51.17
3389.00,51.20
3388.50,51.23
3388.00,51.26
3387.50,51.30
3387.00,51.33
3386.50,51.37
3386.00,51.40
3385.50,51.43
3385.00,51.46
3384.50,51.49
3384.00,51.52
3383.50,51.55
3383.00,51.59
3382.50,51.62
3382.00,51.66
3381.50,51.70
3381.00,51.73
3380.50,51.76
3380.00,51.79
3379.50,51.82
3379.00,51.85
3378.50,51.88
3378.00,51.91
3377.50,51.94
3377.00,51.97
3376.50,52.00
3376.00,52.02
3375.50,52.05
3375.00,52.07
3374.50,52.10
3374.00,52.13
3373.50,52.17
3373.00,52.20
3372.50,52.24
3372.00,52.27
3371.50,52.31
3371.00,52.34
3370.50,52.37
3370.00,52.41
3369.50,52.44
3369.00,52.48
3368.50,52.51
3368.00,52.54
3367.50,52.57
3367.00,52.60
3366.50,52.63
3366.00,52.65
3365.50,52.68
3365.00,52.70
3364.50,52.72
3364.00,52.75
3363.50,52.78
3363.00,52.82
3362.50,52.86
3362.00,52.89
3361.50,52.92
3361.00,52.96
3360.50,52.99
3360.00,53.02
3359.50,53.05
3359.00,53.08
3358.50,53.11
3358.00,53.14
3357.50,53.17
3357.00,53.20
3356.50,53.23
3356.00,53.26
3355.50,53.29
3355.00,53.32
3354.50,53.36
3354.00,53.39
3353.50,53.43
3353.00,53.47
3352.50,53.51
3352.00,53.55
3351.50,53.59
3351.00,53.62
3350.50,53.65
3350.00,53.68
3349.50,53.71
3349.00,53.74
3348.50,53.77
3348.00,53.80
3347.50,53.84
3347.00,53.88
3346.50,53.91
3346.00,53.95
3345.50,53.99
3345.00,54.03
3344.50,54.08
3344.00,54.12
3343.50,54.16
3343.00,54.20
3342.50,54.24
3342.00,54.28
3341.50,54.32
3341.00,54.36
3340.50,54.41
3340.00,54.45
3339.50,54.49
3339.00,54.54
3338.50,54.58
3338.00,54.62
3337.50,54.66
3337.00,54.69
3336.50,54.72
3336.00,54.76
3335.50,54.80
3335.00,54.84
3334.50,54.88
3334.00,54.92
3333.50,54.97
3333.00,55.01
3332.50,55.05
3332.00,55.09
3331.50,55.13
3331.00,55.17
3330.50,55.21
3330.00,55.25
3329.50,55.29
3329.00,55.33
3328.50,55.38
3328.00,55.42
3327.50,55.47
3327.00,55.52
3326.50,55.56
3326.00,55.60
3325.50,55.63
3325.00,55.67
3324.50,55.70
3324.00,55.74
3323.50,55.77
3323.00,55.81
3322.50,55.85
3322.00,55.89
3321.50,55.92
3321.00,55.96
3320.50,56.01
3320.00,56.05
3319.50,56.09
3319.00,56.13
3318.50,56.17
3318.00,56.21
3317.50,56.25
3317.00,56.30
3316.50,56.34
3316.00,56.39
3315.50,56.43
3315.00,56.48
3314.50,56.53
3314.00,56.57
3313.50,56.61
3313.00,56.65
3312.50,56.69
3312.00,56.74
3311.50,56.78
3311.00,56.83
3310.50,56.88
3310.00,56.93
3309.50,56.97
3309.00,57.01
3308.50,57.05
3308.00,57.09
3307.50,57.13
3307.00,57.17
3306.50,57.21
3306.00,57.25
3305.50,57.29
3305.00,57.33
3304.50,57.36
3304.00,57.40
3303.50,57.43
3303.00,57.47
3302.50,57.50
3302.00,57.54
3301.50,57.57
3301.00,57.61
3300.50,57.65
3300.00,57.68
3299.50,57.72
3299.00,57.76
3298.50,57.80
3298.00,57.84
3297.50,57.87
3297.00,57.91
3296.50,57.94
3296.00,57.97
3295.50,58.00
3295.00,58.04
3294.50,58.07
3294.00,58.10
3293.50,58.13
3293.00,58.17
3292.50,58.20
3292.00,58.23
3291.50,58.26
3291.00,58.28
3290.50,58.31
3290.00,58.33
3289.50,58.36
3289.00,58.39
3288.50,58.41
3288.00,58.43
3287.50,58.46
3287.00,58.49
3286.50,58.52
3286.00,58.54
3285.50,58.57
3285.00,58.60
3284.50,58.63
3284.00,58.65
3283.50,58.67
3283.00,58.70
3282.50,58.72
3282.00,58.75
3281.50,58.78
3281.00,58.80
3280.50,58.83
3280.00,58.85
3279.50,58.87
3279.00,58.89
3278.50,58.91
3278.00,58.94
3277.50,58.97
3277.00,59.00
3276.50,59.02
3276.00,59.04
3275.50,59.07
3275.00,59.09
3274.50,59.11
3274.00,59.13
3273.50,59.15
3273.00,59.17
3272.50,59.19
3272.00,59.21
3271.50,59.23
3271.00,59.25
3270.50,59.26
3270.00,59.28
3269.50,59.29
3269.00,59.31
3268.50,59.33
3268.00,59.35
3267.50,59.37
3267.00,59.39
3266.50,59.40
3266.00,59.42
3265.50,59.44
3265.00,59.45
3264.50,59.47
3264.00,59.48
3263.50,59.50
3263.00,59.51
3262.50,59.53
3262.00,59.54
3261.50,59.56
3261.00,59.57
3260.50,59.58
3260.00,59.59
3259.50,59.61
3259.00,59.62
3258.50,59.64
3258.00,59.65
3257.50,59.67
3257.00,59.68
3256.50,59.69
3256.00,59.71
3255.50,59.72
3255.00,59.73
3254.50,59.73
3254.00,59.74
3253.50,59.74
3253.00,59.75
3252.50,59.76
3252.00,59.76
3251.50,59.77
3251.00,59.78
3250.50,59.79
3250.00,59.80
3249.50,59.81
3249.00,59.82
3248.50,59.83
3248.00,59.84
3247.50,59.85
3247.00,59.86
3246.50,59.87
3246.00,59.88
3245.50,59.88
3245.00,59.89
3244.50,59.89
3244.00,59.89
3243.50,59.89
3243.00,59.90
3242.50,59.91
3242.00,59.91
3241.50,59.92
3241.00,59.93
3240.50,59.94
3240.00,59.94
3239.50,59.95
3239.00,59.95
3238.50,59.96
3238.00,59.96
3237.50,59.96
3237.00,59.97
3236.50,59.97
3236.00,59.98
3235.50,59.98
3235.00,59.99
3234.50,60.00
3234.00,60.00
3233.50,60.00
3233.00,60.00
3232.50,60.00
3232.00,59.99
3231.50,59.99
3231.00,59.99
3230.50,59.99
3230.00,59.99
3229.50,59.99
3229.00,59.99
3228.50,59.99
3228.00,59.99
3227.50,59.99
3227.00,59.99
3226.50,59.99
3226.00,59.99
3225.50,59.99
3225.00,59.99
3224.50,60.00
3224.00,60.00
3223.50,60.00
3223.00,60.00
3222.50,60.01
3222.00,60.01
3221.50,60.01
3221.00,60.02
3220.50,60.02
3220.00,60.03
3219.50,60.03
3219.00,60.03
3218.50,60.03
3218.00,60.03
3217.50,60.04
3217.00,60.04
3216.50,60.04
3216.00,60.05
3215.50,60.05
3215.00,60.06
3214.50,60.06
3214.00,60.05
3213.50,60.05
3213.00,60.05
3212.50,60.04
3212.00,60.04
3211.50,60.04
3211.00,60.04
3210.50,60.04
3210.00,60.04
3209.50,60.04
3209.00,60.03
3208.50,60.03
3208.00,60.02
3207.50,60.01
3207.00,60.01
3206.50,60.00
3206.00,59.99
3205.50,59.99
3205.00,59.98
3204.50,59.97
3204.00,59.96
3203.50,59.95
3203.00,59.94
3202.50,59.93
3202.00,59.92
3201.50,59.91
3201.00,59.90
3200.50,59.88
3200.00,59.87
3199.50,59.86
3199.00,59.85
3198.50,59.83
3198.00,59.81
3197.50,59.79
3197.00,59.77
3196.50,59.75
3196.00,59.73
3195.50,59.71
3195.00,59.68
3194.50,59.65
3194.00,59.62
3193.50,59.59
3193.00,59.55
3192.50,59.52
3192.00,59.48
3191.50,59.44
3191.00,59.40
3190.50,59.36
3190.00,59.32
3189.50,59.27
3189.00,59.23
3188.50,59.18
3188.00,59.14
3187.50,59.11
3187.00,59.08
3186.50,59.07
3186.00,59.05
3185.50,59.05
3185.00,59.05
3184.50,59.06
3184.00,59.08
3183.50,59.10
3183.00,59.13
3182.50,59.16
3182.00,59.19
3181.50,59.23
3181.00,59.26
3180.50,59.30
3180.00,59.33
3179.50,59.36
3179.00,59.38
3178.50,59.40
3178.00,59.42
3177.50,59.43
3177.00,59.43
3176.50,59.44
3176.00,59.44
3175.50,59.44
3175.00,59.44
3174.50,59.43
3174.00,59.43
3173.50,59.42
3173.00,59.41
3172.50,59.39
3172.00,59.38
3171.50,59.36
3171.00,59.34
3170.50,59.31
3170.00,59.29
3169.50,59.26
3169.00,59.24
3168.50,59.21
3168.00,59.18
3167.50,59.15
3167.00,59.11
3166.50,59.08
3166.00,59.04
3165.50,59.00
3165.00,58.95
3164.50,58.91
3164.00,58.87
3163.50,58.82
3163.00,58.78
3162.50,58.73
3162.00,58.68
3161.50,58.62
3161.00,58.57
3160.50,58.51
3160.00,58.45
3159.50,58.39
3159.00,58.33
3158.50,58.27
3158.00,58.21
3157.50,58.14
3157.00,58.08
3156.50,58.01
3156.00,57.95
3155.50,57.88
3155.00,57.82
3154.50,57.75
3154.00,57.67
3153.50,57.60
3153.00,57.52
3152.50,57.44
3152.00,57.36
3151.50,57.27
3151.00,57.18
3150.50,57.09
3150.00,57.00
3149.50,56.91
3149.00,56.82
3148.50,56.73
3148.00,56.64
3147.50,56.54
3147.00,56.45
3146.50,56.35
3146.00,56.25
3145.50,56.14
3145.00,56.04
3144.50,55.93
3144.00,55.83
3143.50,55.72
3143.00,55.60
3142.50,55.49
3142.00,55.37
3141.50,55.26
3141.00,55.14
3140.50,55.02
3140.00,54.90
3139.50,54.77
3139.00,54.63
3138.50,54.49
3138.00,54.35
3137.50,54.21
3137.00,54.06
3136.50,53.91
3136.00,53.76
3135.50,53.62
3135.00,53.47
3134.50,53.32
3134.00,53.17
3133.50,53.02
3133.00,52.86
3132.50,52.70
3132.00,52.55
3131.50,52.39
3131.00,52.24
3130.50,52.08
3130.00,51.92
3129.50,51.76
3129.00,51.60
3128.50,51.44
3128.00,51.28
3127.50,51.12
3127.00,50.96
3126.50,50.81
3126.00,50.65
3125.50,50.50
3125.00,50.35
3124.50,50.21
3124.00,50.07
3123.50,49.93
3123.00,49.80
3122.50,49.66
3122.00,49.53
3121.50,49.41
3121.00,49.29
3120.50,49.17
3120.00,49.05
3119.50,48.94
3119.00,48.82
3118.50,48.71
3118.00,48.61
3117.50,48.51
3117.00,48.42
3116.50,48.33
3116.00,48.25
3115.50,48.16
3115.00,48.08
3114.50,48.00
3114.00,47.93
3113.50,47.86
3113.00,47.80
3112.50,47.73
3112.00,47.68
3111.50,47.63
3111.00,47.59
3110.50,47.55
3110.00,47.51
3109.50,47.48
3109.00,47.45
3108.50,47.42
3108.00,47.38
3107.50,47.35
3107.00,47.33
3106.50,47.31
3106.00,47.29
3105.50,47.28
3105.00,47.27
3104.50,47.26
3104.00,47.25
3103.50,47.25
3103.00,47.25
3102.50,47.25
3102.00,47.25
3101.50,47.25
3101.00,47.26
3100.50,47.26
3100.00,47.26
3099.50,47.25
3099.00,47.24
3098.50,47.23
3098.00,47.23
3097.50,47.22
3097.00,47.22
3096.50,47.22
3096.00,47.22
3095.50,47.21
3095.00,47.20
3094.50,47.19
3094.00,47.19
3093.50,47.18
3093.00,47.17
3092.50,47.16
3092.00,47.15
3091.50,47.14
3091.00,47.13
3090.50,47.11
3090.00,47.08
3089.50,47.05
3089.00,47.02
3088.50,46.99
3088.00,46.96
3087.50,46.93
3087.00,46.90
3086.50,46.86
3086.00,46.82
3085.50,46.78
3085.00,46.73
3084.50,46.69
3084.00,46.64
3083.50,46.58
3083.00,46.53
3082.50,46.47
3082.00,46.42
3081.50,46.36
3081.00,46.30
3080.50,46.23
3080.00,46.16
3079.50,46.09
3079.00,46.02
3078.50,45.94
3078.00,45.86
3077.50,45.77
3077.00,45.68
3076.50,45.58
3076.00,45.48
3075.50,45.38
3075.00,45.27
3074.50,45.16
3074.00,45.05
3073.50,44.93
3073.00,44.81
3072.50,44.69
3072.00,44.56
3071.50,44.42
3071.00,44.28
3070.50,44.13
3070.00,43.97
3069.50,43.81
3069.00,43.65
3068.50,43.47
3068.00,43.28
3067.50,43.07
3067.00,42.86
3066.50,42.62
3066.00,42.38
3065.50,42.13
3065.00,41.87
3064.50,41.59
3064.00,41.29
3063.50,40.98
3063.00,40.66
3062.50,40.33
3062.00,39.97
3061.50,39.61
3061.00,39.23
3060.50,38.85
3060.00,38.45
3059.50,38.05
3059.00,37.66
3058.50,37.28
3058.00,36.90
3057.50,36.53
3057.00,36.17
3056.50,35.83
3056.00,35.53
3055.50,35.27
3055.00,35.05
3054.50,34.88
3054.00,34.75
3053.50,34.69
3053.00,34.68
3052.50,34.74
3052.00,34.86
3051.50,35.04
3051.00,35.28
3050.50,35.57
3050.00,35.91
3049.50,36.29
3049.00,36.70
3048.50,37.13
3048.00,37.56
3047.50,37.98
3047.00,38.39
3046.50,38.77
3046.00,39.13
3045.50,39.46
3045.00,39.76
3044.50,40.03
3044.00,40.26
3043.50,40.48
3043.00,40.67
3042.50,40.83
3042.00,40.98
3041.50,41.10
3041.00,41.22
3040.50,41.31
3040.00,41.39
3039.50,41.46
3039.00,41.52
3038.50,41.57
3038.00,41.61
3037.50,41.65
3037.00,41.69
3036.50,41.71
3036.00,41.73
3035.50,41.74
3035.00,41.74
3034.50,41.73
3034.00,41.70
3033.50,41.67
3033.00,41.63
3032.50,41.59
3032.00,41.53
3031.50,41.46
3031.00,41.39
3030.50,41.31
3030.00,41.21
3029.50,41.11
3029.00,40.99
3028.50,40.87
3028.00,40.73
3027.50,40.59
3027.00,40.44
3026.50,40.28
3026.00,40.10
3025.50,39.91
3025.00,39.70
3024.50,39.48
3024.00,39.24
3023.50,38.98
3023.00,38.72
3022.50,38.44
3022.00,38.16
3021.50,37.87
3021.00,37.57
3020.50,37.27
3020.00,36.97
3019.50,36.66
3019.00,36.36
3018.50,36.06
3018.00,35.77
3017.50,35.50
3017.00,35.25
3016.50,35.00
3016.00,34.76
3015.50,34.54
3015.00,34.33
3014.50,34.14
3014.00,33.95
3013.50,33.77
3013.00,33.59
3012.50,33.41
3012.00,33.22
3011.50,33.03
3011.00,32.84
3010.50,32.62
3010.00,32.38
3009.50,32.13
3009.00,31.87
3008.50,31.59
3008.00,31.28
3007.50,30.96
3007.00,30.62
3006.50,30.27
3006.00,29.89
3005.50,29.49
3005.00,29.08
3004.50,28.65
3004.00,28.20
3003.50,27.74
3003.00,27.26
3002.50,26.76
3002.00,26.24
3001.50,25.71
3001.00,25.17
3000.50,24.61
3000.00,24.04
2999.50,23.45
2999.00,22.85
2998.50,22.24
2998.00,21.61
2997.50,20.97
2997.00,20.31
2996.50,19.64
2996.00,18.96
2995.50,18.27
2995.00,17.57
2994.50,16.86
2994.00,16.14
2993.50,15.42
2993.00,14.70
2992.50,13.97
2992.00,13.23
2991.50,12.50
2991.00,11.76
2990.50,11.03
2990.00,10.30
2989.50,9.59
2989.00,8.88
2988.50,8.18
2988.00,7.50
2987.50,6.84
2987.00,6.20
2986.50,5.59
2986.00,5.00
2985.50,4.44
2985.00,3.91
2984.50,3.41
2984.00,2.95
2983.50,2.53
2983.00,2.14
2982.50,1.79
2982.00,1.48
2981.50,1.20
2981.00,0.96
2980.50,0.75
2980.00,0.58
2979.50,0.44
2979.00,0.32
2978.50,0.22
2978.00,0.14
2977.50,0.08
2977.00,0.04
2976.50,0.02
2976.00,0.00
2975.50,-0.00
2975.00,-0.00
2974.50,0.01
2974.00,0.02
2973.50,0.03
2973.00,0.03
2972.50,0.04
2972.00,0.05
2971.50,0.06
2971.00,0.06
2970.50,0.07
2970.00,0.08
2969.50,0.08
2969.00,0.07
2968.50,0.08
2968.00,0.08
2967.50,0.08
2967.00,0.08
2966.50,0.08
2966.00,0.08
2965.50,0.08
2965.00,0.07
2964.50,0.07
2964.00,0.06
2963.50,0.05
2963.00,0.05
2962.50,0.05
2962.00,0.06
2961.50,0.07
2961.00,0.07
2960.50,0.08
2960.00,0.08
2959.50,0.08
2959.00,0.08
2958.50,0.08
2958.00,0.08
2957.50,0.08
2957.00,0.07
2956.50,0.08
2956.00,0.08
2955.50,0.07
2955.00,0.07
2954.50,0.06
2954.00,0.05
2953.50,0.03
2953.00,0.02
2952.50,0.02
2952.00,0.03
2951.50,0.03
2951.00,0.04
2950.50,0.05
2950.00,0.06
2949.50,0.10
2949.00,0.14
2948.50,0.21
2948.00,0.29
2947.50,0.39
2947.00,0.51
2946.50,0.64
2946.00,0.79
2945.50,0.97
2945.00,1.17
2944.50,1.40
2944.00,1.64
2943.50,1.91
2943.00,2.19
2942.50,2.49
2942.00,2.81
2941.50,3.16
2941.00,3.52
2940.50,3.90
2940.00,4.29
2939.50,4.69
2939.00,5.11
2938.50,5.53
2938.00,5.96
2937.50,6.40
2937.00,6.84
2936.50,7.28
2936.00,7.72
2935.50,8.16
2935.00,8.59
2934.50,9.02
2934.00,9.44
2933.50,9.86
2933.00,10.27
2932.50,10.66
2932.00,11.05
2931.50,11.42
2931.00,11.79
2930.50,12.13
2930.00,12.46
2929.50,12.76
2929.00,13.04
2928.50,13.30
2928.00,13.53
2927.50,13.75
2927.00,13.94
2926.50,14.11
2926.00,14.25
2925.50,14.36
2925.00,14.44
2924.50,14.49
2924.00,14.50
2923.50,14.49
2923.00,14.45
2922.50,14.38
2922.00,14.27
2921.50,14.13
2921.00,13.96
2920.50,13.75
2920.00,13.51
2919.50,13.24
2919.00,12.93
2918.50,12.59
2918.00,12.21
2917.50,11.81
2917.00,11.37
2916.50,10.90
2916.00,10.40
2915.50,9.89
2915.00,9.36
2914.50,8.81
2914.00,8.25
2913.50,7.70
2913.00,7.15
2912.50,6.61
2912.00,6.08
2911.50,5.58
2911.00,5.10
2910.50,4.66
2910.00,4.25
2909.50,3.88
2909.00,3.55
2908.50,3.27
2908.00,3.02
2907.50,2.82
2907.00,2.66
2906.50,2.53
2906.00,2.44
2905.50,2.39
2905.00,2.38
2904.50,2.39
2904.00,2.44
2903.50,2.52
2903.00,2.64
2902.50,2.79
2902.00,2.98
2901.50,3.21
2901.00,3.48
2900.50,3.79
2900.00,4.14
2899.50,4.53
2899.00,4.97
2898.50,5.44
2898.00,5.95
2897.50,6.51
2897.00,7.10
2896.50,7.72
2896.00,8.37
2895.50,9.05
2895.00,9.75
2894.50,10.47
2894.00,11.20
2893.50,11.94
2893.00,12.70
2892.50,13.45
2892.00,14.20
2891.50,14.95
2891.00,15.70
2890.50,16.44
2890.00,17.17
2889.50,17.89
2889.00,18.60
2888.50,19.29
2888.00,19.97
2887.50,20.64
2887.00,21.30
2886.50,21.94
2886.00,22.57
2885.50,23.18
2885.00,23.78
2884.50,24.37
2884.00,24.94
2883.50,25.50
2883.00,26.05
2882.50,26.59
2882.00,27.11
2881.50,27.62
2881.00,28.13
2880.50,28.62
2880.00,29.10
2879.50,29.58
2879.00,30.05
2878.50,30.50
2878.00,30.95
2877.50,31.40
2877.00,31.84
2876.50,32.28
2876.00,32.71
2875.50,33.14
2875.00,33.56
2874.50,33.98
2874.00,34.40
2873.50,34.81
2873.00,35.22
2872.50,35.62
2872.00,36.02
2871.50,36.41
2871.00,36.80
2870.50,37.17
2870.00,37.54
2869.50,37.90
2869.00,38.25
2868.50,38.59
2868.00,38.91
2867.50,39.23
2867.00,39.53
2866.50,39.82
2866.00,40.10
2865.50,40.37
2865.00,40.63
2864.50,40.88
2864.00,41.11
2863.50,41.33
2863.00,41.55
2862.50,41.75
2862.00,41.94
2861.50,42.12
2861.00,42.29
2860.50,42.45
2860.00,42.60
2859.50,42.75
2859.00,42.89
2858.50,43.01
2858.00,43.14
2857.50,43.25
2857.00,43.36
2856.50,43.47
2856.00,43.56
2855.50,43.66
2855.00,43.75
2854.50,43.84
2854.00,43.92
2853.50,44.00
2853.00,44.08
2852.50,44.15
2852.00,44.22
2851.50,44.28
2851.00,44.35
2850.50,44.41
2850.00,44.48
2849.50,44.54
2849.00,44.60
2848.50,44.66
2848.00,44.71
2847.50,44.77
2847.00,44.83
2846.50,44.89
2846.00,44.94
2845.50,45.00
2845.00,45.05
2844.50,45.10
2844.00,45.15
2843.50,45.20
2843.00,45.26
2842.50,45.31
2842.00,45.36
2841.50,45.42
2841.00,45.48
2840.50,45.55
2840.00,45.61
2839.50,45.69
2839.00,45.77
2838.50,45.86
2838.00,45.95
2837.50,46.06
2837.00,46.17
2836.50,46.28
2836.00,46.39
2835.50,46.51
2835.00,46.63
2834.50,46.76
2834.00,46.88
2833.50,47.01
2833.00,47.13
2832.50,47.26
2832.00,47.37
2831.50,47.49
2831.00,47.60
2830.50,47.71
2830.00,47.81
2829.50,47.90
2829.00,47.99
2828.50,48.06
2828.00,48.13
2827.50,48.19
2827.00,48.24
2826.50,48.28
2826.00,48.31
2825.50,48.33
2825.00,48.34
2824.50,48.34
2824.00,48.33
2823.50,48.32
2823.00,48.30
2822.50,48.27
2822.00,48.23
2821.50,48.18
2821.00,48.13
2820.50,48.07
2820.00,48.01
2819.50,47.95
2819.00,47.88
2818.50,47.81
2818.00,47.74
2817.50,47.68
2817.00,47.61
2816.50,47.54
2816.00,47.48
2815.50,47.42
2815.00,47.36
2814.50,47.31
2814.00,47.26
2813.50,47.22
2813.00,47.19
2812.50,47.17
2812.00,47.15
2811.50,47.13
2811.00,47.12
2810.50,47.12
2810.00,47.12
2809.50,47.13
2809.00,47.15
2808.50,47.17
2808.00,47.20
2807.50,47.23
2807.00,47.27
2806.50,47.30
2806.00,47.34
2805.50,47.38
2805.00,47.42
2804.50,47.46
2804.00,47.50
2803.50,47.55
2803.00,47.59
2802.50,47.64
2802.00,47.69
2801.50,47.74
2801.00,47.80
2800.50,47.86
2800.00,47.92
2799.50,47.98
2799.00,48.05
2798.50,48.13
2798.00,48.21
2797.50,48.31
2797.00,48.42
2796.50,48.54
2796.00,48.67
2795.50,48.82
2795.00,48.99
2794.50,49.17
2794.00,49.38
2793.50,49.61
2793.00,49.87
2792.50,50.15
2792.00,50.45
2791.50,50.78
2791.00,51.15
2790.50,51.54
2790.00,51.95
2789.50,52.40
2789.00,52.87
2788.50,53.37
2788.00,53.88
2787.50,54.41
2787.00,54.96
2786.50,55.52
2786.00,56.09
2785.50,56.66
2785.00,57.24
2784.50,57.81
2784.00,58.38
2783.50,58.95
2783.00,59.52
2782.50,60.07
2782.00,60.61
2781.50,61.14
2781.00,61.67
2780.50,62.18
2780.00,62.68
2779.50,63.17
2779.00,63.64
2778.50,64.10
2778.00,64.55
2777.50,64.99
2777.00,65.41
2776.50,65.82
2776.00,66.22
2775.50,66.60
2775.00,66.98
2774.50,67.35
2774.00,67.71
2773.50,68.06
2773.00,68.40
2772.50,68.73
2772.00,69.05
2771.50,69.36
2771.00,69.67
2770.50,69.97
2770.00,70.25
2769.50,70.53
2769.00,70.80
2768.50,71.06
2768.00,71.31
2767.50,71.55
2767.00,71.79
2766.50,72.03
2766.00,72.25
2765.50,72.47
2765.00,72.68
2764.50,72.88
2764.00,73.08
2763.50,73.27
2763.00,73.46
2762.50,73.65
2762.00,73.82
2761.50,73.99
2761.00,74.16
2760.50,74.32
2760.00,74.47
2759.50,74.62
2759.00,74.76
2758.50,74.90
2758.00,75.04
2757.50,75.17
2757.00,75.30
2756.50,75.43
2756.00,75.55
2755.50,75.66
2755.00,75.78
2754.50,75.89
2754.00,76.00
2753.50,76.11
2753.00,76.21
2752.50,76.32
2752.00,76.41
2751.50,76.51
2751.00,76.60
2750.50,76.70
2750.00,76.79
2749.50,76.87
2749.00,76.96
2748.50,77.05
2748.00,77.14
2747.50,77.22
2747.00,77.31
2746.50,77.39
2746.00,77.48
2745.50,77.57
2745.00,77.65
2744.50,77.74
2744.00,77.82
2743.50,77.90
2743.00,77.97
2742.50,78.05
2742.00,78.13
2741.50,78.20
2741.00,78.27
2740.50,78.34
2740.00,78.41
2739.50,78.48
2739.00,78.54
2738.50,78.60
2738.00,78.67
2737.50,78.72
2737.00,78.78
2736.50,78.84
2736.00,78.90
2735.50,78.96
2735.00,79.01
2734.50,79.07
2734.00,79.12
2733.50,79.17
2733.00,79.21
2732.50,79.26
2732.00,79.30
2731.50,79.34
2731.00,79.38
2730.50,79.43
2730.00,79.46
2729.50,79.50
2729.00,79.54
2728.50,79.57
2728.00,79.61
2727.50,79.64
2727.00,79.66
2726.50,79.69
2726.00,79.71
2725.50,79.73
2725.00,79.75
2724.50,79.78
2724.00,79.80
2723.50,79.82
2723.00,79.83
2722.50,79.84
2722.00,79.85
2721.50,79.86
2721.00,79.87
2720.50,79.88
2720.00,79.88
2719.50,79.88
2719.00,79.88
2718.50,79.88
2718.00,79.87
2717.50,79.86
2717.00,79.86
2716.50,79.85
2716.00,79.84
2715.50,79.82
2715.00,79.81
2714.50,79.80
2714.00,79.79
2713.50,79.77
2713.00,79.76
2712.50,79.75
2712.00,79.74
2711.50,79.73
2711.00,79.72
2710.50,79.71
2710.00,79.70
2709.50,79.69
2709.00,79.69
2708.50,79.69
2708.00,79.70
2707.50,79.71
2707.00,79.72
2706.50,79.73
2706.00,79.75
2705.50,79.76
2705.00,79.79
2704.50,79.81
2704.00,79.84
2703.50,79.87
2703.00,79.90
2702.50,79.93
2702.00,79.96
2701.50,79.99
2701.00,80.02
2700.50,80.06
2700.00,80.09
2699.50,80.12
2699.00,80.14
2698.50,80.17
2698.00,80.20
2697.50,80.22
2697.00,80.25
2696.50,80.27
2696.00,80.29
2695.50,80.31
2695.00,80.32
2694.50,80.33
2694.00,80.34
2693.50,80.34
2693.00,80.35
2692.50,80.35
2692.00,80.35
2691.50,80.34
2691.00,80.33
2690.50,80.32
2690.00,80.31
2689.50,80.28
2689.00,80.26
2688.50,80.23
2688.00,80.20
2687.50,80.16
2687.00,80.12
2686.50,80.07
2686.00,80.02
2685.50,79.97
2685.00,79.91
2684.50,79.85
2684.00,79.78
2683.50,79.71
2683.00,79.63
2682.50,79.56
2682.00,79.47
2681.50,79.38
2681.00,79.28
2680.50,79.18
2680.00,79.07
2679.50,78.97
2679.00,78.86
2678.50,78.75
2678.00,78.64
2677.50,78.52
2677.00,78.39
2676.50,78.27
2676.00,78.14
2675.50,78.01
2675.00,77.88
2674.50,77.74
2674.00,77.60
2673.50,77.46
2673.00,77.31
2672.50,77.17
2672.00,77.03
2671.50,76.88
2671.00,76.74
2670.50,76.60
2670.00,76.46
2669.50,76.32
2669.00,76.18
2668.50,76.05
2668.00,75.93
2667.50,75.81
2667.00,75.70
2666.50,75.59
2666.00,75.50
2665.50,75.41
2665.00,75.34
2664.50,75.28
2664.00,75.23
2663.50,75.19
2663.00,75.17
2662.50,75.16
2662.00,75.16
2661.50,75.17
2661.00,75.20
2660.50,75.24
2660.00,75.29
2659.50,75.35
2659.00,75.42
2658.50,75.51
2658.00,75.61
2657.50,75.71
2657.00,75.83
2656.50,75.96
2656.00,76.10
2655.50,76.24
2655.00,76.40
2654.50,76.56
2654.00,76.73
2653.50,76.90
2653.00,77.09
2652.50,77.28
2652.00,77.47
2651.50,77.66
2651.00,77.86
2650.50,78.07
2650.00,78.27
2649.50,78.47
2649.00,78.67
2648.50,78.88
2648.00,79.08
2647.50,79.27
2647.00,79.47
2646.50,79.66
2646.00,79.85
2645.50,80.03
2645.00,80.21
2644.50,80.38
2644.00,80.55
2643.50,80.72
2643.00,80.88
2642.50,81.03
2642.00,81.18
2641.50,81.33
2641.00,81.47
2640.50,81.60
2640.00,81.73
2639.50,81.86
2639.00,81.98
2638.50,82.10
2638.00,82.21
2637.50,82.32
2637.00,82.42
2636.50,82.53
2636.00,82.63
2635.50,82.72
2635.00,82.81
2634.50,82.90
2634.00,82.98
2633.50,83.06
2633.00,83.14
2632.50,83.22
2632.00,83.30
2631.50,83.37
2631.00,83.43
2630.50,83.50
2630.00,83.56
2629.50,83.62
2629.00,83.68
2628.50,83.74
2628.00,83.80
2627.50,83.85
2627.00,83.91
2626.50,83.96
2626.00,84.01
2625.50,84.06
2625.00,84.11
2624.50,84.16
2624.00,84.21
2623.50,84.25
2623.00,84.30
2622.50,84.35
2622.00,84.39
2621.50,84.43
2621.00,84.47
2620.50,84.51
2620.00,84.55
2619.50,84.58
2619.00,84.62
2618.50,84.65
2618.00,84.69
2617.50,84.72
2617.00,84.75
2616.50,84.78
2616.00,84.82
2615.50,84.85
2615.00,84.88
2614.50,84.91
2614.00,84.94
2613.50,84.96
2613.00,84.99
2612.50,85.02
2612.00,85.04
2611.50,85.07
2611.00,85.09
2610.50,85.11
2610.00,85.14
2609.50,85.16
2609.00,85.18
2608.50,85.20
2608.00,85.22
2607.50,85.24
2607.00,85.26
2606.50,85.28
2606.00,85.30
2605.50,85.32
2605.00,85.33
2604.50,85.35
2604.00,85.37
2603.50,85.38
2603.00,85.40
2602.50,85.41
2602.00,85.43
2601.50,85.44
2601.00,85.46
2600.50,85.47
2600.00,85.49
2599.50,85.49
2599.00,85.50
2598.50,85.51
2598.00,85.52
2597.50,85.53
2597.00,85.54
2596.50,85.55
2596.00,85.56
2595.50,85.57
2595.00,85.58
2594.50,85.59
2594.00,85.60
2593.50,85.61
2593.00,85.62
2592.50,85.63
2592.00,85.65
2591.50,85.66
2591.00,85.67
2590.50,85.68
2590.00,85.69
2589.50,85.70
2589.00,85.71
2588.50,85.72
2588.00,85.73
2587.50,85.74
2587.00,85.75
2586.50,85.76
2586.00,85.78
2585.50,85.79
2585.00,85.80
2584.50,85.81
2584.00,85.82
2583.50,85.83
2583.00,85.84
2582.50,85.85
2582.00,85.86
2581.50,85.86
2581.00,85.87
2580.50,85.88
2580.00,85.89
2579.50,85.90
2579.00,85.90
2578.50,85.91
2578.00,85.91
2577.50,85.92
2577.00,85.92
2576.50,85.93
2576.00,85.93
2575.50,85.93
2575.00,85.94
2574.50,85.95
2574.00,85.95
2573.50,85.96
2573.00,85.96
2572.50,85.97
2572.00,85.97
2571.50,85.98
2571.00,85.98
2570.50,85.98
2570.00,85.99
2569.50,85.99
2569.00,85.99
2568.50,86.00
2568.00,86.01
2567.50,86.01
2567.00,86.01
2566.50,86.01
2566.00,86.01
2565.50,86.01
2565.00,86.01
2564.50,86.01
2564.00,86.02
2563.50,86.02
2563.00,86.02
2562.50,86.02
2562.00,86.02
2561.50,86.02
2561.00,86.02
2560.50,86.02
2560.00,86.02
2559.50,86.02
2559.00,86.01
2558.50,86.02
2558.00,86.01
2557.50,86.01
2557.00,86.01
2556.50,86.01
2556.00,86.01
2555.50,86.01
2555.00,86.01
2554.50,86.01
2554.00,86.00
2553.50,86.00
2553.00,85.99
2552.50,85.99
2552.00,85.99
2551.50,85.99
2551.00,85.98
2550.50,85.98
2550.00,85.98
2549.50,85.97
2549.00,85.96
2548.50,85.96
2548.00,85.96
2547.50,85.95
2547.00,85.95
2546.50,85.94
2546.00,85.94
2545.50,85.93
2545.00,85.92
2544.50,85.91
2544.00,85.90
2543.50,85.89
2543.00,85.89
2542.50,85.88
2542.00,85.88
2541.50,85.87
2541.00,85.86
2540.50,85.85
2540.00,85.84
2539.50,85.83
2539.00,85.82
2538.50,85.81
2538.00,85.79
2537.50,85.78
2537.00,85.76
2536.50,85.75
2536.00,85.73
2535.50,85.71
2535.00,85.70
2534.50,85.68
2534.00,85.65
2533.50,85.63
2533.00,85.60
2532.50,85.58
2532.00,85.55
2531.50,85.52
2531.00,85.49
2530.50,85.47
2530.00,85.44
2529.50,85.40
2529.00,85.37
2528.50,85.33
2528.00,85.30
2527.50,85.26
2527.00,85.22
2526.50,85.18
2526.00,85.14
2525.50,85.09
2525.00,85.05
2524.50,85.01
2524.00,84.96
2523.50,84.91
2523.00,84.86
2522.50,84.81
2522.00,84.76
2521.50,84.70
2521.00,84.64
2520.50,84.58
2520.00,84.52
2519.50,84.46
2519.00,84.40
2518.50,84.33
2518.00,84.26
2517.50,84.18
2517.00,84.09
2516.50,84.01
2516.00,83.91
2515.50,83.82
2515.00,83.71
2514.50,83.60
2514.00,83.48
2513.50,83.35
2513.00,83.20
2512.50,83.05
2512.00,82.89
2511.50,82.71
2511.00,82.52
2510.50,82.32
2510.00,82.09
2509.50,81.84
2509.00,81.57
2508.50,81.28
2508.00,80.96
2507.50,80.61
2507.00,80.24
2506.50,79.85
2506.00,79.43
2505.50,78.99
2505.00,78.53
2504.50,78.06
2504.00,77.59
2503.50,77.12
2503.00,76.67
2502.50,76.25
2502.00,75.87
2501.50,75.53
2501.00,75.26
2500.50,75.06
2500.00,74.92
2499.50,74.86
2499.00,74.88
2498.50,74.97
2498.00,75.11
2497.50,75.31
2497.00,75.55
2496.50,75.83
2496.00,76.14
2495.50,76.46
2495.00,76.79
2494.50,77.14
2494.00,77.48
2493.50,77.82
2493.00,78.16
2492.50,78.50
2492.00,78.83
2491.50,79.15
2491.00,79.48
2490.50,79.79
2490.00,80.10
2489.50,80.39
2489.00,80.68
2488.50,80.96
2488.00,81.23
2487.50,81.49
2487.00,81.74
2486.50,81.97
2486.00,82.20
2485.50,82.41
2485.00,82.61
2484.50,82.80
2484.00,82.98
2483.50,83.14
2483.00,83.30
2482.50,83.45
2482.00,83.59
2481.50,83.72
2481.00,83.84
2480.50,83.95
2480.00,84.06
2479.50,84.16
2479.00,84.25
2478.50,84.34
2478.00,84.43
2477.50,84.50
2477.00,84.58
2476.50,84.65
2476.00,84.72
2475.50,84.78
2475.00,84.84
2474.50,84.90
2474.00,84.96
2473.50,85.01
2473.00,85.05
2472.50,85.10
2472.00,85.15
2471.50,85.19
2471.00,85.22
2470.50,85.26
2470.00,85.30
2469.50,85.33
2469.00,85.37
2468.50,85.40
2468.00,85.43
2467.50,85.46
2467.00,85.48
2466.50,85.51
2466.00,85.54
2465.50,85.56
2465.00,85.59
2464.50,85.61
2464.00,85.63
2463.50,85.65
2463.00,85.67
2462.50,85.70
2462.00,85.72
2461.50,85.73
2461.00,85.75
2460.50,85.77
2460.00,85.79
2459.50,85.81
2459.00,85.82
2458.50,85.84
2458.00,85.86
2457.50,85.87
2457.00,85.89
2456.50,85.90
2456.00,85.92
2455.50,85.93
2455.00,85.95
2454.50,85.96
2454.00,85.97
2453.50,85.98
2453.00,86.00
2452.50,86.01
2452.00,86.02
2451.50,86.03
2451.00,86.04
2450.50,86.05
2450.00,86.06
2449.50,86.07
2449.00,86.08
2448.50,86.09
2448.00,86.10
2447.50,86.10
2447.00,86.11
2446.50,86.12
2446.00,86.13
2445.50,86.13
2445.00,86.13
2444.50,86.14
2444.00,86.15
2443.50,86.15
2443.00,86.16
2442.50,86.16
2442.00,86.17
2441.50,86.17
2441.00,86.17
2440.50,86.17
2440.00,86.18
2439.50,86.18
2439.00,86.18
2438.50,86.19
2438.00,86.19
2437.50,86.19
2437.00,86.19
2436.50,86.20
2436.00,86.21
2435.50,86.21
2435.00,86.21
2434.50,86.22
2434.00,86.22
2433.50,86.22
2433.00,86.21
2432.50,86.22
2432.00,86.22
2431.50,86.22
2431.00,86.22
2430.50,86.22
2430.00,86.23
2429.50,86.23
2429.00,86.23
2428.50,86.24
2428.00,86.24
2427.50,86.24
2427.00,86.24
2426.50,86.24
2426.00,86.24
2425.50,86.24
2425.00,86.23
2424.50,86.24
2424.00,86.24
2423.50,86.24
2423.00,86.23
2422.50,86.24
2422.00,86.24
2421.50,86.24
2421.00,86.24
2420.50,86.24
2420.00,86.24
2419.50,86.23
2419.00,86.23
2418.50,86.23
2418.00,86.23
2417.50,86.22
2417.00,86.22
2416.50,86.22
2416.00,86.22
2415.50,86.21
2415.00,86.21
2414.50,86.20
2414.00,86.20
2413.50,86.19
2413.00,86.19
2412.50,86.19
2412.00,86.18
2411.50,86.18
2411.00,86.17
2410.50,86.17
2410.00,86.17
2409.50,86.16
2409.00,86.16
2408.50,86.15
2408.00,86.15
2407.50,86.15
2407.00,86.14
2406.50,86.14
2406.00,86.14
2405.50,86.14
2405.00,86.14
2404.50,86.14
2404.00,86.13
2403.50,86.13
2403.00,86.13
2402.50,86.13
2402.00,86.13
2401.50,86.12
2401.00,86.12
2400.50,86.12
2400.00,86.12
2399.50,86.12
2399.00,86.12
2398.50,86.11
2398.00,86.11
2397.50,86.11
2397.00,86.10
2396.50,86.10
2396.00,86.10
2395.50,86.09
2395.00,86.09
2394.50,86.09
2394.00,86.09
2393.50,86.08
2393.00,86.08
2392.50,86.07
2392.00,86.07
2391.50,86.06
2391.00,86.06
2390.50,86.05
2390.00,86.05
2389.50,86.04
2389.00,86.03
2388.50,86.02
2388.00,86.02
2387.50,86.01
2387.00,86.00
2386.50,85.99
2386.00,85.98
2385.50,85.97
2385.00,85.96
2384.50,85.95
2384.00,85.94
2383.50,85.93
2383.00,85.91
2382.50,85.90
2382.00,85.89
2381.50,85.88
2381.00,85.86
2380.50,85.85
2380.00,85.84
2379.50,85.82
2379.00,85.81
2378.50,85.81
2378.00,85.80
2377.50,85.79
2377.00,85.78
2376.50,85.77
2376.00,85.76
2375.50,85.75
2375.00,85.74
2374.50,85.74
2374.00,85.74
2373.50,85.72
2373.00,85.71
2372.50,85.71
2372.00,85.71
2371.50,85.70
2371.00,85.69
2370.50,85.69
2370.00,85.69
2369.50,85.68
2369.00,85.67
2368.50,85.66
2368.00,85.65
2367.50,85.63
2367.00,85.61
2366.50,85.61
2366.00,85.61
2365.50,85.60
2365.00,85.59
2364.50,85.59
2364.00,85.59
2363.50,85.57
2363.00,85.55
2362.50,85.55
2362.00,85.56
2361.50,85.55
2361.00,85.53
2360.50,85.53
2360.00,85.52
2359.50,85.49
2359.00,85.47
2358.50,85.47
2358.00,85.46
2357.50,85.45
2357.00,85.43
2356.50,85.43
2356.00,85.43
2355.50,85.41
2355.00,85.40
2354.50,85.39
2354.00,85.38
2353.50,85.36
2353.00,85.35
2352.50,85.33
2352.00,85.32
2351.50,85.29
2351.00,85.27
2350.50,85.27
2350.00,85.27
2349.50,85.26
2349.00,85.25
2348.50,85.24
2348.00,85.23
2347.50,85.21
2347.00,85.19
2346.50,85.18
2346.00,85.18
2345.50,85.17
2345.00,85.16
2344.50,85.16
2344.00,85.16
2343.50,85.14
2343.00,85.12
2342.50,85.10
2342.00,85.09
2341.50,85.06
2341.00,85.03
2340.50,85.00
2340.00,84.97
2339.50,84.94
2339.00,84.91
2338.50,84.90
2338.00,84.90
2337.50,84.90
2337.00,84.90
2336.50,84.92
2336.00,84.93
2335.50,84.93
2335.00,84.92
2334.50,84.92
2334.00,84.92
2333.50,84.91
2333.00,84.89
2332.50,84.89
2332.00,84.88
2331.50,84.87
2331.00,84.85
2330.50,84.84
2330.00,84.84
2329.50,84.83
2329.00,84.81
2328.50,84.80
2328.00,84.79
2327.50,84.77
2327.00,84.75
2326.50,84.73
2326.00,84.72
2325.50,84.70
2325.00,84.68
2324.50,84.67
2324.00,84.66
2323.50,84.64
2323.00,84.61
2322.50,84.60
2322.00,84.59
2321.50,84.57
2321.00,84.54
2320.50,84.53
2320.00,84.51
2319.50,84.50
2319.00,84.47
2318.50,84.46
2318.00,84.45
2317.50,84.43
2317.00,84.41
2316.50,84.39
2316.00,84.37
2315.50,84.35
2315.00,84.32
2314.50,84.29
2314.00,84.27
2313.50,84.24
2313.00,84.22
2312.50,84.20
2312.00,84.18
2311.50,84.15
2311.00,84.13
2310.50,84.11
2310.00,84.09
2309.50,84.06
2309.00,84.04
2308.50,84.01
2308.00,84.00
2307.50,83.97
2307.00,83.94
2306.50,83.92
2306.00,83.89
2305.50,83.87
2305.00,83.84
2304.50,83.82
2304.00,83.79
2303.50,83.77
2303.00,83.74
2302.50,83.71
2302.00,83.69
2301.50,83.66
2301.00,83.63
2300.50,83.60
2300.00,83.57
2299.50,83.53
2299.00,83.50
2298.50,83.47
2298.00,83.44
2297.50,83.40
2297.00,83.37
2296.50,83.34
2296.00,83.30
2295.50,83.26
2295.00,83.22
2294.50,83.18
2294.00,83.14
2293.50,83.10
2293.00,83.06
2292.50,83.02
2292.00,82.98
2291.50,82.93
2291.00,82.89
2290.50,82.85
2290.00,82.81
2289.50,82.76
2289.00,82.71
2288.50,82.67
2288.00,82.62
2287.50,82.57
2287.00,82.52
2286.50,82.47
2286.00,82.42
2285.50,82.37
2285.00,82.32
2284.50,82.27
2284.00,82.22
2283.50,82.17
2283.00,82.12
2282.50,82.07
2282.00,82.03
2281.50,81.97
2281.00,81.92
2280.50,81.88
2280.00,81.83
2279.50,81.78
2279.00,81.74
2278.50,81.69
2278.00,81.65
2277.50,81.61
2277.00,81.57
2276.50,81.53
2276.00,81.49
2275.50,81.46
2275.00,81.42
2274.50,81.39
2274.00,81.36
2273.50,81.33
2273.00,81.31
2272.50,81.29
2272.00,81.27
2271.50,81.24
2271.00,81.22
2270.50,81.20
2270.00,81.19
2269.50,81.17
2269.00,81.15
2268.50,81.14
2268.00,81.13
2267.50,81.11
2267.00,81.09
2266.50,81.07
2266.00,81.06
2265.50,81.03
2265.00,81.01
2264.50,81.00
2264.00,80.98
2263.50,80.95
2263.00,80.93
2262.50,80.91
2262.00,80.89
2261.50,80.86
2261.00,80.83
2260.50,80.81
2260.00,80.78
2259.50,80.76
2259.00,80.73
2258.50,80.70
2258.00,80.67
2257.50,80.64
2257.00,80.60
2256.50,80.57
2256.00,80.54
2255.50,80.51
2255.00,80.47
2254.50,80.44
2254.00,80.40
2253.50,80.36
2253.00,80.31
2252.50,80.27
2252.00,80.23
2251.50,80.19
2251.00,80.14
2250.50,80.10
2250.00,80.05
2249.50,80.00
2249.00,79.95
2248.50,79.90
2248.00,79.85
2247.50,79.80
2247.00,79.74
2246.50,79.69
2246.00,79.63
2245.50,79.57
2245.00,79.51
2244.50,79.45
2244.00,79.40
2243.50,79.33
2243.00,79.27
2242.50,79.21
2242.00,79.14
2241.50,79.07
2241.00,79.00
2240.50,78.93
2240.00,78.86
2239.50,78.78
2239.00,78.70
2238.50,78.62
2238.00,78.55
2237.50,78.46
2237.00,78.37
2236.50,78.29
2236.00,78.20
2235.50,78.10
2235.00,78.00
2234.50,77.91
2234.00,77.81
2233.50,77.70
2233.00,77.59
2232.50,77.49
2232.00,77.38
2231.50,77.26
2231.00,77.14
2230.50,77.02
2230.00,76.90
2229.50,76.77
2229.00,76.64
2228.50,76.51
2228.00,76.37
2227.50,76.24
2227.00,76.09
2226.50,75.95
2226.00,75.81
2225.50,75.66
2225.00,75.51
2224.50,75.36
2224.00,75.21
2223.50,75.05
2223.00,74.89
2222.50,74.72
2222.00,74.56
2221.50,74.39
2221.00,74.22
2220.50,74.05
2220.00,73.88
2219.50,73.70
2219.00,73.51
2218.50,73.33
2218.00,73.15
2217.50,72.95
2217.00,72.75
2216.50,72.55
2216.00,72.35
2215.50,72.14
2215.00,71.92
2214.50,71.70
2214.00,71.48
2213.50,71.24
2213.00,71.00
2212.50,70.76
2212.00,70.51
2211.50,70.25
2211.00,69.98
2210.50,69.71
2210.00,69.43
2209.50,69.14
2209.00,68.83
2208.50,68.53
2208.00,68.22
2207.50,67.90
2207.00,67.57
2206.50,67.23
2206.00,66.88
2205.50,66.52
2205.00,66.15
2204.50,65.77
2204.00,65.38
2203.50,64.98
2203.00,64.57
2202.50,64.14
2202.00,63.72
2201.50,63.27
2201.00,62.81
2200.50,62.34
2200.00,61.86
2199.50,61.37
2199.00,60.86
2198.50,60.34
2198.00,59.81
2197.50,59.27
2197.00,58.70
2196.50,58.13
2196.00,57.54
2195.50,56.94
2195.00,56.32
2194.50,55.70
2194.00,55.06
2193.50,54.40
2193.00,53.72
2192.50,53.03
2192.00,52.34
2191.50,51.63
2191.00,50.90
2190.50,50.16
2190.00,49.41
2189.50,48.64
2189.00,47.86
2188.50,47.07
2188.00,46.28
2187.50,45.47
2187.00,44.64
2186.50,43.81
2186.00,42.98
2185.50,42.13
2185.00,41.27
2184.50,40.42
2184.00,39.56
2183.50,38.70
2183.00,37.82
2182.50,36.95
2182.00,36.10
2181.50,35.24
2181.00,34.37
2180.50,33.52
2180.00,32.68
2179.50,31.85
2179.00,31.02
2178.50,30.22
2178.00,29.43
2177.50,28.66
2177.00,27.89
2176.50,27.15
2176.00,26.44
2175.50,25.75
2175.00,25.07
2174.50,24.42
2174.00,23.81
2173.50,23.22
2173.00,22.63
2172.50,22.08
2172.00,21.57
2171.50,21.07
2171.00,20.59
2170.50,20.15
2170.00,19.74
2169.50,19.35
2169.00,18.97
2168.50,18.63
2168.00,18.33
2167.50,18.05
2167.00,17.78
2166.50,17.54
2166.00,17.34
2165.50,17.16
2165.00,17.00
2164.50,16.86
2164.00,16.77
2163.50,16.70
2163.00,16.64
2162.50,16.61
2162.00,16.62
2161.50,16.66
2161.00,16.70
2160.50,16.78
2160.00,16.90
2159.50,17.04
2159.00,17.19
2158.50,17.37
2158.00,17.60
2157.50,17.84
2157.00,18.09
2156.50,18.38
2156.00,18.71
2155.50,19.06
2155.00,19.42
2154.50,19.82
2154.00,20.25
2153.50,20.71
2153.00,21.18
2152.50,21.69
2152.00,22.23
2151.50,22.79
2151.00,23.37
2150.50,23.98
2150.00,24.63
2149.50,25.29
2149.00,25.96
2148.50,26.66
2148.00,27.39
2147.50,28.14
2147.00,28.90
2146.50,29.68
2146.00,30.49
2145.50,31.31
2145.00,32.13
2144.50,32.97
2144.00,33.83
2143.50,34.69
2143.00,35.55
2142.50,36.42
2142.00,37.30
2141.50,38.18
2141.00,39.06
2140.50,39.93
2140.00,40.82
2139.50,41.70
2139.00,42.57
2138.50,43.43
2138.00,44.29
2137.50,45.14
2137.00,45.98
2136.50,46.81
2136.00,47.64
2135.50,48.45
2135.00,49.23
2134.50,50.01
2134.00,50.77
2133.50,51.51
2133.00,52.24
2132.50,52.94
2132.00,53.64
2131.50,54.31
2131.00,54.96
2130.50,55.59
2130.00,56.21
2129.50,56.80
2129.00,57.37
2128.50,57.92
2128.00,58.46
2127.50,58.97
2127.00,59.46
2126.50,59.94
2126.00,60.40
2125.50,60.85
2125.00,61.27
2124.50,61.69
2124.00,62.09
2123.50,62.47
2123.00,62.84
2122.50,63.20
2122.00,63.54
2121.50,63.88
2121.00,64.19
2120.50,64.50
2120.00,64.80
2119.50,65.08
2119.00,65.35
2118.50,65.62
2118.00,65.87
2117.50,66.12
2117.00,66.35
2116.50,66.57
2116.00,66.79
2115.50,67.00
2115.00,67.19
2114.50,67.38
2114.00,67.57
2113.50,67.74
2113.00,67.90
2112.50,68.06
2112.00,68.22
2111.50,68.37
2111.00,68.51
2110.50,68.65
2110.00,68.79
2109.50,68.92
2109.00,69.04
2108.50,69.17
2108.00,69.29
2107.50,69.41
2107.00,69.52
2106.50,69.64
2106.00,69.75
2105.50,69.86
2105.00,69.96
2104.50,70.06
2104.00,70.17
2103.50,70.27
2103.00,70.36
2102.50,70.46
2102.00,70.55
2101.50,70.64
2101.00,70.72
2100.50,70.81
2100.00,70.89
2099.50,70.97
2099.00,71.05
2098.50,71.12
2098.00,71.20
2097.50,71.27
2097.00,71.33
2096.50,71.40
2096.00,71.46
2095.50,71.51
2095.00,71.56
2094.50,71.61
2094.00,71.66
2093.50,71.70
2093.00,71.73
2092.50,71.77
2092.00,71.80
2091.50,71.82
2091.00,71.84
2090.50,71.86
2090.00,71.87
2089.50,71.88
2089.00,71.88
2088.50,71.88
2088.00,71.88
2087.50,71.88
2087.00,71.87
2086.50,71.86
2086.00,71.86
2085.50,71.84
2085.00,71.83
2084.50,71.82
2084.00,71.81
2083.50,71.79
2083.00,71.78
2082.50,71.76
2082.00,71.75
2081.50,71.73
2081.00,71.71
2080.50,71.69
2080.00,71.66
2079.50,71.64
2079.00,71.61
2078.50,71.59
2078.00,71.56
2077.50,71.53
2077.00,71.50
2076.50,71.46
2076.00,71.42
2075.50,71.38
2075.00,71.33
2074.50,71.28
2074.00,71.24
2073.50,71.18
2073.00,71.12
2072.50,71.06
2072.00,71.00
2071.50,70.94
2071.00,70.87
2070.50,70.80
2070.00,70.73
2069.50,70.65
2069.00,70.56
2068.50,70.47
2068.00,70.38
2067.50,70.29
2067.00,70.20
2066.50,70.12
2066.00,70.04
2065.50,69.95
2065.00,69.85
2064.50,69.76
2064.00,69.67
2063.50,69.57
2063.00,69.46
2062.50,69.36
2062.00,69.26
2061.50,69.16
2061.00,69.05
2060.50,68.95
2060.00,68.84
2059.50,68.74
2059.00,68.63
2058.50,68.53
2058.00,68.43
2057.50,68.32
2057.00,68.22
2056.50,68.13
2056.00,68.05
2055.50,67.96
2055.00,67.88
2054.50,67.81
2054.00,67.75
2053.50,67.70
2053.00,67.66
2052.50,67.64
2052.00,67.63
2051.50,67.64
2051.00,67.67
2050.50,67.71
2050.00,67.78
2049.50,67.87
2049.00,67.98
2048.50,68.11
2048.00,68.27
2047.50,68.45
2047.00,68.65
2046.50,68.87
2046.00,69.11
2045.50,69.37
2045.00,69.65
2044.50,69.94
2044.00,70.24
2043.50,70.54
2043.00,70.85
2042.50,71.16
2042.00,71.48
2041.50,71.80
2041.00,72.11
2040.50,72.42
2040.00,72.70
2039.50,72.97
2039.00,73.23
2038.50,73.48
2038.00,73.72
2037.50,73.94
2037.00,74.15
2036.50,74.34
2036.00,74.51
2035.50,74.67
2035.00,74.80
2034.50,74.93
2034.00,75.04
2033.50,75.13
2033.00,75.21
2032.50,75.28
2032.00,75.33
2031.50,75.37
2031.00,75.40
2030.50,75.42
2030.00,75.42
2029.50,75.42
2029.00,75.40
2028.50,75.37
2028.00,75.34
2027.50,75.29
2027.00,75.24
2026.50,75.18
2026.00,75.11
2025.50,75.03
2025.00,74.95
2024.50,74.86
2024.00,74.77
2023.50,74.67
2023.00,74.56
2022.50,74.45
2022.00,74.34
2021.50,74.22
2021.00,74.10
2020.50,73.97
2020.00,73.85
2019.50,73.71
2019.00,73.57
2018.50,73.43
2018.00,73.28
2017.50,73.13
2017.00,72.97
2016.50,72.81
2016.00,72.65
2015.50,72.48
2015.00,72.32
2014.50,72.15
2014.00,71.97
2013.50,71.79
2013.00,71.61
2012.50,71.43
2012.00,71.25
2011.50,71.08
2011.00,70.91
2010.50,70.75
2010.00,70.60
2009.50,70.45
2009.00,70.31
2008.50,70.18
2008.00,70.05
2007.50,69.94
2007.00,69.83
2006.50,69.73
2006.00,69.63
2005.50,69.54
2005.00,69.45
2004.50,69.35
2004.00,69.26
2003.50,69.17
2003.00,69.07
2002.50,68.97
2002.00,68.88
2001.50,68.78
2001.00,68.69
2000.50,68.60
2000.00,68.53
1999.50,68.46
1999.00,68.39
1998.50,68.34
1998.00,68.30
1997.50,68.25
1997.00,68.20
1996.50,68.16
1996.00,68.16
1995.50,68.20
1995.00,68.26
1994.50,68.32
1994.00,68.36
1993.50,68.38
1993.00,68.40
1992.50,68.41
1992.00,68.42
1991.50,68.41
1991.00,68.39
1990.50,68.35
1990.00,68.31
1989.50,68.25
1989.00,68.18
1988.50,68.09
1988.00,68.00
1987.50,67.90
1987.00,67.79
1986.50,67.67
1986.00,67.54
1985.50,67.40
1985.00,67.25
1984.50,67.09
1984.00,66.93
1983.50,66.75
1983.00,66.56
1982.50,66.37
1982.00,66.17
1981.50,65.96
1981.00,65.73
1980.50,65.51
1980.00,65.27
1979.50,65.02
1979.00,64.77
1978.50,64.50
1978.00,64.23
1977.50,63.95
1977.00,63.65
1976.50,63.35
1976.00,63.04
1975.50,62.72
1975.00,62.40
1974.50,62.06
1974.00,61.73
1973.50,61.38
1973.00,61.03
1972.50,60.68
1972.00,60.32
1971.50,59.96
1971.00,59.60
1970.50,59.23
1970.00,58.87
1969.50,58.52
1969.00,58.17
1968.50,57.83
1968.00,57.48
1967.50,57.13
1967.00,56.78
1966.50,56.46
1966.00,56.16
1965.50,55.87
1965.00,55.58
1964.50,55.30
1964.00,55.03
1963.50,54.77
1963.00,54.52
1962.50,54.26
1962.00,54.02
1961.50,53.78
1961.00,53.54
1960.50,53.30
1960.00,53.07
1959.50,52.84
1959.00,52.60
1958.50,52.36
1958.00,52.12
1957.50,51.88
1957.00,51.63
1956.50,51.38
1956.00,51.13
1955.50,50.86
1955.00,50.58
1954.50,50.30
1954.00,50.02
1953.50,49.74
1953.00,49.45
1952.50,49.15
1952.00,48.86
1951.50,48.56
1951.00,48.26
1950.50,47.96
1950.00,47.67
1949.50,47.39
1949.00,47.11
1948.50,46.85
1948.00,46.60
1947.50,46.38
1947.00,46.16
1946.50,45.97
1946.00,45.82
1945.50,45.70
1945.00,45.60
1944.50,45.54
1944.00,45.52
1943.50,45.55
1943.00,45.63
1942.50,45.79
1942.00,46.00
1941.50,46.22
1941.00,46.45
1940.50,46.74
1940.00,47.08
1939.50,47.46
1939.00,47.86
1938.50,48.29
1938.00,48.75
1937.50,49.22
1937.00,49.70
1936.50,50.18
1936.00,50.66
1935.50,51.13
1935.00,51.58
1934.50,52.02
1934.00,52.45
1933.50,52.87
1933.00,53.27
1932.50,53.65
1932.00,54.00
1931.50,54.33
1931.00,54.63
1930.50,54.92
1930.00,55.19
1929.50,55.44
1929.00,55.67
1928.50,55.89
1928.00,56.09
1927.50,56.28
1927.00,56.46
1926.50,56.62
1926.00,56.78
1925.50,56.92
1925.00,57.05
1924.50,57.16
1924.00,57.28
1923.50,57.41
1923.00,57.56
1922.50,57.70
1922.00,57.82
1921.50,57.92
1921.00,58.02
1920.50,58.12
1920.00,58.22
1919.50,58.32
1919.00,58.44
1918.50,58.61
1918.00,58.81
1917.50,58.99
1917.00,59.14
1916.50,59.29
1916.00,59.47
1915.50,59.67
1915.00,59.88
1914.50,60.11
1914.00,60.34
1913.50,60.58
1913.00,60.82
1912.50,61.06
1912.00,61.29
1911.50,61.50
1911.00,61.71
1910.50,61.95
1910.00,62.18
1909.50,62.39
1909.00,62.57
1908.50,62.75
1908.00,62.94
1907.50,63.12
1907.00,63.28
1906.50,63.44
1906.00,63.60
1905.50,63.74
1905.00,63.88
1904.50,64.02
1904.00,64.15
1903.50,64.26
1903.00,64.36
1902.50,64.46
1902.00,64.56
1901.50,64.64
1901.00,64.71
1900.50,64.78
1900.00,64.84
1899.50,64.89
1899.00,64.92
1898.50,64.96
1898.00,65.00
1897.50,65.02
1897.00,65.03
1896.50,65.05
1896.00,65.07
1895.50,65.08
1895.00,65.09
1894.50,65.10
1894.00,65.10
1893.50,65.09
1893.00,65.07
1892.50,65.07
1892.00,65.06
1891.50,65.05
1891.00,65.02
1890.50,65.01
1890.00,65.01
1889.50,65.01
1889.00,65.00
1888.50,64.99
1888.00,64.97
1887.50,64.95
1887.00,64.93
1886.50,64.91
1886.00,64.90
1885.50,64.88
1885.00,64.86
1884.50,64.85
1884.00,64.83
1883.50,64.81
1883.00,64.79
1882.50,64.77
1882.00,64.75
1881.50,64.73
1881.00,64.70
1880.50,64.69
1880.00,64.67
1879.50,64.64
1879.00,64.62
1878.50,64.60
1878.00,64.58
1877.50,64.56
1877.00,64.53
1876.50,64.52
1876.00,64.50
1875.50,64.47
1875.00,64.45
1874.50,64.43
1874.00,64.42
1873.50,64.40
1873.00,64.38
1872.50,64.37
1872.00,64.35
1871.50,64.32
1871.00,64.29
1870.50,64.28
1870.00,64.29
1869.50,64.30
1869.00,64.31
1868.50,64.32
1868.00,64.31
1867.50,64.31
1867.00,64.30
1866.50,64.30
1866.00,64.29
1865.50,64.29
1865.00,64.28
1864.50,64.28
1864.00,64.29
1863.50,64.29
1863.00,64.29
1862.50,64.28
1862.00,64.28
1861.50,64.27
1861.00,64.26
1860.50,64.25
1860.00,64.24
1859.50,64.21
1859.00,64.19
1858.50,64.17
1858.00,64.14
1857.50,64.11
1857.00,64.08
1856.50,64.06
1856.00,64.03
1855.50,64.00
1855.00,63.97
1854.50,63.95
1854.00,63.94
1853.50,63.91
1853.00,63.89
1852.50,63.88
1852.00,63.88
1851.50,63.88
1851.00,63.88
1850.50,63.89
1850.00,63.91
1849.50,63.92
1849.00,63.93
1848.50,63.96
1848.00,64.00
1847.50,64.04
1847.00,64.07
1846.50,64.09
1846.00,64.12
1845.50,64.14
1845.00,64.21
1844.50,64.31
1844.00,64.38
1843.50,64.37
1843.00,64.33
1842.50,64.32
1842.00,64.33
1841.50,64.33
1841.00,64.34
1840.50,64.34
1840.00,64.34
1839.50,64.33
1839.00,64.32
1838.50,64.31
1838.00,64.30
1837.50,64.29
1837.00,64.27
1836.50,64.26
1836.00,64.24
1835.50,64.20
1835.00,64.16
1834.50,64.13
1834.00,64.10
1833.50,64.06
1833.00,64.01
1832.50,63.97
1832.00,63.92
1831.50,63.87
1831.00,63.82
1830.50,63.79
1830.00,63.77
1829.50,63.71
1829.00,63.62
1828.50,63.56
1828.00,63.50
1827.50,63.44
1827.00,63.36
1826.50,63.27
1826.00,63.19
1825.50,63.11
1825.00,63.04
1824.50,62.97
1824.00,62.90
1823.50,62.82
1823.00,62.73
1822.50,62.64
1822.00,62.56
1821.50,62.47
1821.00,62.37
1820.50,62.27
1820.00,62.17
1819.50,62.07
1819.00,61.96
1818.50,61.86
1818.00,61.75
1817.50,61.64
1817.00,61.52
1816.50,61.42
1816.00,61.32
1815.50,61.20
1815.00,61.09
1814.50,60.97
1814.00,60.86
1813.50,60.73
1813.00,60.60
1812.50,60.48
1812.00,60.36
1811.50,60.23
1811.00,60.09
1810.50,59.96
1810.00,59.83
1809.50,59.70
1809.00,59.57
1808.50,59.44
1808.00,59.30
1807.50,59.15
1807.00,59.01
1806.50,58.88
1806.00,58.75
1805.50,58.60
1805.00,58.46
1804.50,58.31
1804.00,58.17
1803.50,58.02
1803.00,57.86
1802.50,57.72
1802.00,57.58
1801.50,57.45
1801.00,57.32
1800.50,57.19
1800.00,57.05
1799.50,56.90
1799.00,56.75
1798.50,56.63
1798.00,56.51
1797.50,56.38
1797.00,56.24
1796.50,56.11
1796.00,55.98
1795.50,55.84
1795.00,55.71
1794.50,55.60
1794.00,55.50
1793.50,55.40
1793.00,55.29
1792.50,55.16
1792.00,55.02
1791.50,54.89
1791.00,54.76
1790.50,54.65
1790.00,54.55
1789.50,54.45
1789.00,54.36
1788.50,54.26
1788.00,54.16
1787.50,54.07
1787.00,53.98
1786.50,53.90
1786.00,53.82
1785.50,53.74
1785.00,53.66
1784.50,53.59
1784.00,53.52
1783.50,53.46
1783.00,53.39
1782.50,53.33
1782.00,53.26
1781.50,53.20
1781.00,53.15
1780.50,53.12
1780.00,53.09
1779.50,53.06
1779.00,53.03
1778.50,53.01
1778.00,52.98
1777.50,52.95
1777.00,52.92
1776.50,52.90
1776.00,52.89
1775.50,52.88
1775.00,52.88
1774.50,52.87
1774.00,52.86
1773.50,52.87
1773.00,52.92
1772.50,52.99
1772.00,53.01
1771.50,52.99
1771.00,52.97
1770.50,52.96
1770.00,52.95
1769.50,52.93
1769.00,52.94
1768.50,52.97
1768.00,53.02
1767.50,53.05
1767.00,53.07
1766.50,53.08
1766.00,53.10
1765.50,53.12
1765.00,53.15
1764.50,53.17
1764.00,53.19
1763.50,53.20
1763.00,53.22
1762.50,53.28
1762.00,53.35
1761.50,53.39
1761.00,53.40
1760.50,53.41
1760.00,53.41
1759.50,53.42
1759.00,53.44
1758.50,53.46
1758.00,53.48
1757.50,53.50
1757.00,53.55
1756.50,53.59
1756.00,53.61
1755.50,53.62
1755.00,53.63
1754.50,53.64
1754.00,53.65
1753.50,53.66
1753.00,53.65
1752.50,53.65
1752.00,53.66
1751.50,53.69
1751.00,53.72
1750.50,53.73
1750.00,53.72
1749.50,53.71
1749.00,53.72
1748.50,53.74
1748.00,53.74
1747.50,53.73
1747.00,53.72
1746.50,53.71
1746.00,53.69
1745.50,53.66
1745.00,53.62
1744.50,53.58
1744.00,53.55
1743.50,53.52
1743.00,53.50
1742.50,53.48
1742.00,53.45
1741.50,53.42
1741.00,53.39
1740.50,53.38
1740.00,53.35
1739.50,53.28
1739.00,53.21
1738.50,53.15
1738.00,53.09
1737.50,53.02
1737.00,52.96
1736.50,52.90
1736.00,52.85
1735.50,52.81
1735.00,52.80
1734.50,52.79
1734.00,52.68
1733.50,52.49
1733.00,52.38
1732.50,52.32
1732.00,52.25
1731.50,52.17
1731.00,52.08
1730.50,52.00
1730.00,51.92
1729.50,51.84
1729.00,51.78
1728.50,51.73
1728.00,51.67
1727.50,51.60
1727.00,51.53
1726.50,51.47
1726.00,51.41
1725.50,51.34
1725.00,51.28
1724.50,51.22
1724.00,51.17
1723.50,51.12
1723.00,51.07
1722.50,51.03
1722.00,50.99
1721.50,50.94
1721.00,50.90
1720.50,50.86
1720.00,50.82
1719.50,50.77
1719.00,50.72
1718.50,50.72
1718.00,50.74
1717.50,50.69
1717.00,50.65
1716.50,50.65
1716.00,50.65
1715.50,50.63
1715.00,50.60
1714.50,50.56
1714.00,50.52
1713.50,50.49
1713.00,50.47
1712.50,50.45
1712.00,50.44
1711.50,50.41
1711.00,50.38
1710.50,50.37
1710.00,50.35
1709.50,50.33
1709.00,50.31
1708.50,50.29
1708.00,50.27
1707.50,50.24
1707.00,50.22
1706.50,50.21
1706.00,50.19
1705.50,50.14
1705.00,50.10
1704.50,50.07
1704.00,50.04
1703.50,50.01
1703.00,49.97
1702.50,49.94
1702.00,49.91
1701.50,49.88
1701.00,49.81
1700.50,49.80
1700.00,49.79
1699.50,49.72
1699.00,49.67
1698.50,49.63
1698.00,49.58
1697.50,49.50
1697.00,49.43
1696.50,49.37
1696.00,49.29
1695.50,49.19
1695.00,49.15
1694.50,49.12
1694.00,49.07
1693.50,49.00
1693.00,48.92
1692.50,48.85
1692.00,48.78
1691.50,48.70
1691.00,48.61
1690.50,48.53
1690.00,48.44
1689.50,48.34
1689.00,48.25
1688.50,48.16
1688.00,48.08
1687.50,47.99
1687.00,47.91
1686.50,47.83
1686.00,47.73
1685.50,47.61
1685.00,47.50
1684.50,47.48
1684.00,47.34
1683.50,47.21
1683.00,47.18
1682.50,47.15
1682.00,47.11
1681.50,47.05
1681.00,46.98
1680.50,46.92
1680.00,46.86
1679.50,46.81
1679.00,46.76
1678.50,46.72
1678.00,46.66
1677.50,46.60
1677.00,46.54
1676.50,46.50
1676.00,46.45
1675.50,46.34
1675.00,46.19
1674.50,46.08
1674.00,45.99
1673.50,45.90
1673.00,45.82
1672.50,45.72
1672.00,45.62
1671.50,45.49
1671.00,45.39
1670.50,45.32
1670.00,45.24
1669.50,45.09
1669.00,44.88
1668.50,44.71
1668.00,44.60
1667.50,44.50
1667.00,44.40
1666.50,44.29
1666.00,44.18
1665.50,44.05
1665.00,43.94
1664.50,43.84
1664.00,43.74
1663.50,43.63
1663.00,43.47
1662.50,43.31
1662.00,43.17
1661.50,43.04
1661.00,42.93
1660.50,42.82
1660.00,42.71
1659.50,42.59
1659.00,42.47
1658.50,42.36
1658.00,42.25
1657.50,42.12
1657.00,42.01
1656.50,41.90
1656.00,41.83
1655.50,41.73
1655.00,41.64
1654.50,41.55
1654.00,41.53
1653.50,41.37
1653.00,40.92
1652.50,40.76
1652.00,40.77
1651.50,40.73
1651.00,40.69
1650.50,40.63
1650.00,40.56
1649.50,40.47
1649.00,40.38
1648.50,40.30
1648.00,40.23
1647.50,40.14
1647.00,40.05
1646.50,39.95
1646.00,39.82
1645.50,39.70
1645.00,39.61
1644.50,39.56
1644.00,39.50
1643.50,39.42
1643.00,39.33
1642.50,39.25
1642.00,39.18
1641.50,39.10
1641.00,39.02
1640.50,38.95
1640.00,38.87
1639.50,38.80
1639.00,38.72
1638.50,38.66
1638.00,38.59
1637.50,38.51
1637.00,38.44
1636.50,38.39
1636.00,38.31
1635.50,38.11
1635.00,37.94
1634.50,37.89
1634.00,37.86
1633.50,37.79
1633.00,37.71
1632.50,37.62
1632.00,37.54
1631.50,37.45
1631.00,37.35
1630.50,37.27
1630.00,37.18
1629.50,37.10
1629.00,37.01
1628.50,36.92
1628.00,36.81
1627.50,36.69
1627.00,36.58
1626.50,36.51
1626.00,36.43
1625.50,36.35
1625.00,36.27
1624.50,36.21
1624.00,36.13
1623.50,36.00
1623.00,35.86
1622.50,35.76
1622.00,35.68
1621.50,35.59
1621.00,35.50
1620.50,35.42
1620.00,35.34
1619.50,35.25
1619.00,35.17
1618.50,35.10
1618.00,35.04
1617.50,34.96
1617.00,34.86
1616.50,34.75
1616.00,34.67
1615.50,34.62
1615.00,34.57
1614.50,34.53
1614.00,34.49
1613.50,34.44
1613.00,34.39
1612.50,34.35
1612.00,34.32
1611.50,34.28
1611.00,34.24
1610.50,34.21
1610.00,34.19
1609.50,34.15
1609.00,34.11
1608.50,34.08
1608.00,34.05
1607.50,34.01
1607.00,33.96
1606.50,33.91
1606.00,33.86
1605.50,33.80
1605.00,33.73
1604.50,33.65
1604.00,33.55
1603.50,33.42
1603.00,33.25
1602.50,33.05
1602.00,32.80
1601.50,32.49
1601.00,32.09
1600.50,31.62
1600.00,31.08
1599.50,30.47
1599.00,29.80
1598.50,29.16
1598.00,28.63
1597.50,28.27
1597.00,28.17
1596.50,28.36
1596.00,28.83
1595.50,29.48
1595.00,30.28
1594.50,31.15
1594.00,31.96
1593.50,32.62
1593.00,33.17
1592.50,33.65
1592.00,34.07
1591.50,34.44
1591.00,34.75
1590.50,35.03
1590.00,35.29
1589.50,35.53
1589.00,35.74
1588.50,35.95
1588.00,36.15
1587.50,36.33
1587.00,36.51
1586.50,36.69
1586.00,36.87
1585.50,37.04
1585.00,37.20
1584.50,37.36
1584.00,37.53
1583.50,37.69
1583.00,37.84
1582.50,37.99
1582.00,38.14
1581.50,38.29
1581.00,38.42
1580.50,38.57
1580.00,38.71
1579.50,38.85
1579.00,38.97
1578.50,39.08
1578.00,39.18
1577.50,39.26
1577.00,39.38
1576.50,39.63
1576.00,39.90
1575.50,40.04
1575.00,40.11
1574.50,40.19
1574.00,40.27
1573.50,40.37
1573.00,40.46
1572.50,40.56
1572.00,40.66
1571.50,40.75
1571.00,40.83
1570.50,40.94
1570.00,41.13
1569.50,41.33
1569.00,41.44
1568.50,41.50
1568.00,41.56
1567.50,41.62
1567.00,41.67
1566.50,41.73
1566.00,41.80
1565.50,41.87
1565.00,41.96
1564.50,42.06
1564.00,42.13
1563.50,42.18
1563.00,42.22
1562.50,42.25
1562.00,42.28
1561.50,42.28
1561.00,42.28
1560.50,42.30
1560.00,42.48
1559.50,42.86
1559.00,43.03
1558.50,42.90
1558.00,42.77
1557.50,42.78
1557.00,42.79
1556.50,42.79
1556.00,42.78
1555.50,42.77
1555.00,42.80
1554.50,42.85
1554.00,42.89
1553.50,42.89
1553.00,42.89
1552.50,42.88
1552.00,42.87
1551.50,42.85
1551.00,42.82
1550.50,42.82
1550.00,42.84
1549.50,42.86
1549.00,42.87
1548.50,42.88
1548.00,42.87
1547.50,42.85
1547.00,42.83
1546.50,42.81
1546.00,42.81
1545.50,42.80
1545.00,42.79
1544.50,42.77
1544.00,42.75
1543.50,42.73
1543.00,42.73
1542.50,42.76
1542.00,42.78
1541.50,42.74
1541.00,42.67
1540.50,42.65
1540.00,42.68
1539.50,42.59
1539.00,42.44
1538.50,42.41
1538.00,42.43
1537.50,42.42
1537.00,42.40
1536.50,42.38
1536.00,42.35
1535.50,42.31
1535.00,42.28
1534.50,42.25
1534.00,42.24
1533.50,42.20
1533.00,42.16
1532.50,42.13
1532.00,42.11
1531.50,42.08
1531.00,42.07
1530.50,42.06
1530.00,42.04
1529.50,42.02
1529.00,41.99
1528.50,41.98
1528.00,41.98
1527.50,41.97
1527.00,41.97
1526.50,41.98
1526.00,42.01
1525.50,42.03
1525.00,42.04
1524.50,42.03
1524.00,42.03
1523.50,42.02
1523.00,42.03
1522.50,42.06
1522.00,42.10
1521.50,42.12
1521.00,42.10
1520.50,42.09
1520.00,42.08
1519.50,42.07
1519.00,42.04
1518.50,42.01
1518.00,41.98
1517.50,41.99
1517.00,42.02
1516.50,42.05
1516.00,42.06
1515.50,42.07
1515.00,42.08
1514.50,42.09
1514.00,42.10
1513.50,42.09
1513.00,42.08
1512.50,42.09
1512.00,42.09
1511.50,42.07
1511.00,42.04
1510.50,42.01
1510.00,42.00
1509.50,41.97
1509.00,41.95
1508.50,41.94
1508.00,41.94
1507.50,41.93
1507.00,41.99
1506.50,42.06
1506.00,42.05
1505.50,42.02
1505.00,42.01
1504.50,42.01
1504.00,42.00
1503.50,41.97
1503.00,41.95
1502.50,41.93
1502.00,41.92
1501.50,41.89
1501.00,41.86
1500.50,41.83
1500.00,41.80
1499.50,41.75
1499.00,41.69
1498.50,41.64
1498.00,41.57
1497.50,41.47
1497.00,41.37
1496.50,41.26
1496.00,41.11
1495.50,40.95
1495.00,40.82
1494.50,40.70
1494.00,40.55
1493.50,40.36
1493.00,40.16
1492.50,39.98
1492.00,39.80
1491.50,39.59
1491.00,39.33
1490.50,39.02
1490.00,38.65
1489.50,38.31
1489.00,38.08
1488.50,37.91
1488.00,37.71
1487.50,37.44
1487.00,37.14
1486.50,36.89
1486.00,36.69
1485.50,36.50
1485.00,36.31
1484.50,36.15
1484.00,36.00
1483.50,35.86
1483.00,35.73
1482.50,35.62
1482.00,35.53
1481.50,35.43
1481.00,35.34
1480.50,35.28
1480.00,35.24
1479.50,35.19
1479.00,35.14
1478.50,35.10
1478.00,35.06
1477.50,34.99
1477.00,34.91
1476.50,34.84
1476.00,34.78
1475.50,34.72
1475.00,34.65
1474.50,34.59
1474.00,34.50
1473.50,34.36
1473.00,34.18
1472.50,33.92
1472.00,33.58
1471.50,33.25
1471.00,32.98
1470.50,32.73
1470.00,32.43
1469.50,32.07
1469.00,31.67
1468.50,31.26
1468.00,30.82
1467.50,30.37
1467.00,29.95
1466.50,29.57
1466.00,29.17
1465.50,28.63
1465.00,27.89
1464.50,27.16
1464.00,26.59
1463.50,26.10
1463.00,25.59
1462.50,25.04
1462.00,24.44
1461.50,23.83
1461.00,23.26
1460.50,22.74
1460.00,22.24
1459.50,21.69
1459.00,21.12
1458.50,20.59
1458.00,20.09
1457.50,19.48
1457.00,18.77
1456.50,18.15
1456.00,17.69
1455.50,17.28
1455.00,16.87
1454.50,16.47
1454.00,16.05
1453.50,15.62
1453.00,15.16
1452.50,14.65
1452.00,14.10
1451.50,13.55
1451.00,13.06
1450.50,12.63
1450.00,12.23
1449.50,11.85
1449.00,11.49
1448.50,11.12
1448.00,10.74
1447.50,10.41
1447.00,10.21
1446.50,10.11
1446.00,10.05
1445.50,10.02
1445.00,10.03
1444.50,10.12
1444.00,10.26
1443.50,10.42
1443.00,10.64
1442.50,10.91
1442.00,11.21
1441.50,11.53
1441.00,11.87
1440.50,12.24
1440.00,12.61
1439.50,12.97
1439.00,13.31
1438.50,13.61
1438.00,13.89
1437.50,14.18
1437.00,14.61
1436.50,15.11
1436.00,15.38
1435.50,15.47
1435.00,15.55
1434.50,15.63
1434.00,15.68
1433.50,15.68
1433.00,15.64
1432.50,15.58
1432.00,15.47
1431.50,15.30
1431.00,15.10
1430.50,14.84
1430.00,14.47
1429.50,14.03
1429.00,13.61
1428.50,13.22
1428.00,12.77
1427.50,12.25
1427.00,11.70
1426.50,11.14
1426.00,10.56
1425.50,9.98
1425.00,9.38
1424.50,8.69
1424.00,7.85
1423.50,7.03
1423.00,6.38
1422.50,5.85
1422.00,5.34
1421.50,4.84
1421.00,4.41
1420.50,4.04
1420.00,3.58
1419.50,2.94
1419.00,2.39
1418.50,2.11
1418.00,1.92
1417.50,1.74
1417.00,1.58
1416.50,1.43
1416.00,1.30
1415.50,1.19
1415.00,1.11
1414.50,1.06
1414.00,1.00
1413.50,0.95
1413.00,0.93
1412.50,0.92
1412.00,0.91
1411.50,0.90
1411.00,0.91
1410.50,0.93
1410.00,0.94
1409.50,0.96
1409.00,1.00
1408.50,1.05
1408.00,1.10
1407.50,1.15
1407.00,1.22
1406.50,1.29
1406.00,1.36
1405.50,1.44
1405.00,1.54
1404.50,1.64
1404.00,1.71
1403.50,1.78
1403.00,1.86
1402.50,1.94
1402.00,2.02
1401.50,2.10
1401.00,2.18
1400.50,2.28
1400.00,2.41
1399.50,2.59
1399.00,2.85
1398.50,3.13
1398.00,3.39
1397.50,3.68
1397.00,4.01
1396.50,4.38
1396.00,4.80
1395.50,5.33
1395.00,6.04
1394.50,6.82
1394.00,7.52
1393.50,8.12
1393.00,8.69
1392.50,9.28
1392.00,9.92
1391.50,10.60
1391.00,11.29
1390.50,11.95
1390.00,12.57
1389.50,13.14
1389.00,13.66
1388.50,14.15
1388.00,14.72
1387.50,15.36
1387.00,15.95
1386.50,16.39
1386.00,16.75
1385.50,17.10
1385.00,17.46
1384.50,17.81
1384.00,18.18
1383.50,18.56
1383.00,18.93
1382.50,19.29
1382.00,19.65
1381.50,20.01
1381.00,20.34
1380.50,20.65
1380.00,20.95
1379.50,21.24
1379.00,21.51
1378.50,21.74
1378.00,21.96
1377.50,22.16
1377.00,22.33
1376.50,22.45
1376.00,22.55
1375.50,22.66
1375.00,22.76
1374.50,22.84
1374.00,22.90
1373.50,22.98
1373.00,23.05
1372.50,23.12
1372.00,23.23
1371.50,23.38
1371.00,23.57
1370.50,23.78
1370.00,24.01
1369.50,24.26
1369.00,24.52
1368.50,24.76
1368.00,24.98
1367.50,25.17
1367.00,25.33
1366.50,25.46
1366.00,25.60
1365.50,25.73
1365.00,25.84
1364.50,25.91
1364.00,26.00
1363.50,26.12
1363.00,26.25
1362.50,26.35
1362.00,26.44
1361.50,26.52
1361.00,26.60
1360.50,26.67
1360.00,26.73
1359.50,26.80
1359.00,26.86
1358.50,26.91
1358.00,26.97
1357.50,27.03
1357.00,27.08
1356.50,27.11
1356.00,27.15
1355.50,27.19
1355.00,27.22
1354.50,27.24
1354.00,27.25
1353.50,27.27
1353.00,27.28
1352.50,27.27
1352.00,27.27
1351.50,27.26
1351.00,27.24
1350.50,27.21
1350.00,27.18
1349.50,27.15
1349.00,27.12
1348.50,27.07
1348.00,27.03
1347.50,27.00
1347.00,26.95
1346.50,26.91
1346.00,26.87
1345.50,26.85
1345.00,26.82
1344.50,26.79
1344.00,26.78
1343.50,26.77
1343.00,26.77
1342.50,26.76
1342.00,26.76
1341.50,26.76
1341.00,26.75
1340.50,26.74
1340.00,26.73
1339.50,26.72
1339.00,26.71
1338.50,26.68
1338.00,26.65
1337.50,26.62
1337.00,26.57
1336.50,26.50
1336.00,26.43
1335.50,26.37
1335.00,26.29
1334.50,26.19
1334.00,26.08
1333.50,25.98
1333.00,25.85
1332.50,25.71
1332.00,25.57
1331.50,25.43
1331.00,25.27
1330.50,25.10
1330.00,24.92
1329.50,24.75
1329.00,24.56
1328.50,24.35
1328.00,24.15
1327.50,23.95
1327.00,23.74
1326.50,23.51
1326.00,23.29
1325.50,23.06
1325.00,22.83
1324.50,22.58
1324.00,22.34
1323.50,22.09
1323.00,21.84
1322.50,21.58
1322.00,21.32
1321.50,21.07
1321.00,20.80
1320.50,20.53
1320.00,20.26
1319.50,19.98
1319.00,19.69
1318.50,19.39
1318.00,19.12
1317.50,18.85
1317.00,18.55
1316.50,18.26
1316.00,17.97
1315.50,17.69
1315.00,17.40
1314.50,17.11
1314.00,16.81
1313.50,16.52
1313.00,16.22
1312.50,15.91
1312.00,15.61
1311.50,15.33
1311.00,15.05
1310.50,14.76
1310.00,14.48
1309.50,14.20
1309.00,13.90
1308.50,13.61
1308.00,13.33
1307.50,13.05
1307.00,12.76
1306.50,12.48
1306.00,12.21
1305.50,11.94
1305.00,11.66
1304.50,11.38
1304.00,11.11
1303.50,10.84
1303.00,10.56
1302.50,10.28
1302.00,10.01
1301.50,9.73
1301.00,9.45
1300.50,9.16
1300.00,8.88
1299.50,8.60
1299.00,8.31
1298.50,8.02
1298.00,7.75
1297.50,7.47
1297.00,7.18
1296.50,6.89
1296.00,6.62
1295.50,6.35
1295.00,6.07
1294.50,5.79
1294.00,5.53
1293.50,5.27
1293.00,5.01
1292.50,4.75
1292.00,4.51
1291.50,4.27
1291.00,4.02
1290.50,3.78
1290.00,3.56
1289.50,3.34
1289.00,3.13
1288.50,2.91
1288.00,2.71
1287.50,2.51
1287.00,2.31
1286.50,2.12
1286.00,1.95
1285.50,1.78
1285.00,1.61
1284.50,1.44
1284.00,1.30
1283.50,1.16
1283.00,1.02
1282.50,0.89
1282.00,0.77
1281.50,0.66
1281.00,0.56
1280.50,0.46
1280.00,0.38
1279.50,0.31
1279.00,0.24
1278.50,0.18
1278.00,0.14
1277.50,0.11
1277.00,0.08
1276.50,0.05
1276.00,0.04
1275.50,0.03
1275.00,0.02
1274.50,0.01
1274.00,0.01
1273.50,0.01
1273.00,0.00
1272.50,0.00
1272.00,0.01
1271.50,0.01
1271.00,0.00
1270.50,0.00
1270.00,0.01
1269.50,0.01
1269.00,0.00
1268.50,0.01
1268.00,0.01
1267.50,0.00
1267.00,0.00
1266.50,0.00
1266.00,0.00
1265.50,0.00
1265.00,0.00
1264.50,0.01
1264.00,0.00
1263.50,0.00
1263.00,0.00
1262.50,0.00
1262.00,0.00
1261.50,0.01
1261.00,0.00
1260.50,0.00
1260.00,0.00
1259.50,0.00
1259.00,0.00
1258.50,0.00
1258.00,0.01
1257.50,0.01
1257.00,0.01
1256.50,0.01
1256.00,0.01
1255.50,0.01
1255.00,0.00
1254.50,0.00
1254.00,0.01
1253.50,0.01
1253.00,0.00
1252.50,0.00
1252.00,0.00
1251.50,0.00
1251.00,0.00
1250.50,0.00
1250.00,0.00
1249.50,0.00
1249.00,0.00
1248.50,0.00
1248.00,0.01
1247.50,0.01
1247.00,0.01
1246.50,0.00
1246.00,0.01
1245.50,0.01
1245.00,0.01
1244.50,0.01
1244.00,0.03
1243.50,0.04
1243.00,0.05
1242.50,0.06
1242.00,0.09
1241.50,0.11
1241.00,0.13
1240.50,0.16
1240.00,0.20
1239.50,0.23
1239.00,0.26
1238.50,0.30
1238.00,0.34
1237.50,0.38
1237.00,0.41
1236.50,0.45
1236.00,0.49
1235.50,0.52
1235.00,0.54
1234.50,0.56
1234.00,0.59
1233.50,0.61
1233.00,0.62
1232.50,0.63
1232.00,0.65
1231.50,0.66
1231.00,0.66
1230.50,0.65
1230.00,0.66
1229.50,0.65
1229.00,0.63
1228.50,0.61
1228.00,0.60
1227.50,0.59
1227.00,0.56
1226.50,0.54
1226.00,0.52
1225.50,0.49
1225.00,0.46
1224.50,0.44
1224.00,0.42
1223.50,0.39
1223.00,0.36
1222.50,0.34
1222.00,0.32
1221.50,0.29
1221.00,0.27
1220.50,0.24
1220.00,0.23
1219.50,0.21
1219.00,0.18
1218.50,0.16
1218.00,0.15
1217.50,0.14
1217.00,0.12
1216.50,0.11
1216.00,0.10
1215.50,0.09
1215.00,0.08
1214.50,0.07
1214.00,0.06
1213.50,0.05
1213.00,0.04
1212.50,0.03
1212.00,0.04
1211.50,0.04
1211.00,0.03
1210.50,0.03
1210.00,0.03
1209.50,0.02
1209.00,0.02
1208.50,0.01
1208.00,0.02
1207.50,0.02
1207.00,0.01
1206.50,0.00
1206.00,0.01
1205.50,0.01
1205.00,0.00
1204.50,0.00
1204.00,0.01
1203.50,0.01
1203.00,0.01
1202.50,0.00
1202.00,0.01
1201.50,0.01
1201.00,0.00
1200.50,0.00
1200.00,0.01
1199.50,0.01
1199.00,0.01
1198.50,0.01
1198.00,0.01
1197.50,0.01
1197.00,0.01
1196.50,0.01
1196.00,0.00
1195.50,0.00
1195.00,0.01
1194.50,0.01
1194.00,0.01
1193.50,0.01
1193.00,0.00
1192.50,0.00
1192.00,0.00
1191.50,0.00
1191.00,0.00
1190.50,0.01
1190.00,0.00
1189.50,0.00
1189.00,0.00
1188.50,0.00
1188.00,0.00
1187.50,0.00
1187.00,0.00
1186.50,0.00
1186.00,0.00
1185.50,0.00
1185.00,0.00
1184.50,0.00
1184.00,0.00
1183.50,0.00
1183.00,0.00
1182.50,0.00
1182.00,0.00
1181.50,0.01
1181.00,0.00
1180.50,0.00
1180.00,0.00
1179.50,0.00
1179.00,0.01
1178.50,0.01
1178.00,0.01
1177.50,0.00
1177.00,0.01
1176.50,0.01
1176.00,0.00
1175.50,0.00
1175.00,0.01
1174.50,0.00
1174.00,0.00
1173.50,0.00
1173.00,0.00
1172.50,0.00
1172.00,0.00
1171.50,0.00
1171.00,0.00
1170.50,0.00
1170.00,0.00
1169.50,0.00
1169.00,0.00
1168.50,0.00
1168.00,0.01
1167.50,0.01
1167.00,0.01
1166.50,0.01
1166.00,0.00
1165.50,0.00
1165.00,0.01
1164.50,0.01
1164.00,0.01
1163.50,0.00
1163.00,0.01
1162.50,0.01
1162.00,0.00
1161.50,0.00
1161.00,0.00
1160.50,0.01
1160.00,0.00
1159.50,0.00
1159.00,0.01
1158.50,0.01
1158.00,0.00
1157.50,0.00
1157.00,0.01
1156.50,0.01
1156.00,0.01
1155.50,0.01
1155.00,0.01
1154.50,0.01
1154.00,0.01
1153.50,0.01
1153.00,0.01
1152.50,0.01
1152.00,0.01
1151.50,0.00
1151.00,0.00
1150.50,0.01
1150.00,0.01
1149.50,0.00
1149.00,0.00
1148.50,0.01
1148.00,0.00
1147.50,0.00
1147.00,0.00
1146.50,0.00
1146.00,0.00
1145.50,0.00
1145.00,0.01
1144.50,0.01
1144.00,0.01
1143.50,0.00
1143.00,0.00
1142.50,0.00
1142.00,0.00
1141.50,0.01
1141.00,0.00
1140.50,0.01
1140.00,0.01
1139.50,0.01
1139.00,0.00
1138.50,0.01
1138.00,0.00
1137.50,0.00
1137.00,0.00
1136.50,0.01
1136.00,0.00
1135.50,0.01
1135.00,0.01
1134.50,0.01
1134.00,0.01
1133.50,0.00
1133.00,0.01
1132.50,0.01
1132.00,0.01
1131.50,0.01
1131.00,0.01
1130.50,0.01
1130.00,0.01
1129.50,0.01
1129.00,0.01
1128.50,0.01
1128.00,0.01
1127.50,0.00
1127.00,0.00
1126.50,0.00
1126.00,0.00
1125.50,0.00
1125.00,0.00
1124.50,0.00
1124.00,0.00
1123.50,0.00
1123.00,0.01
1122.50,0.01
1122.00,0.00
1121.50,0.00
1121.00,0.01
1120.50,0.01
1120.00,0.00
1119.50,0.00
1119.00,0.00
1118.50,0.00
1118.00,0.00
1117.50,0.00
1117.00,0.01
1116.50,0.01
1116.00,0.00
1115.50,0.00
1115.00,0.01
1114.50,0.01
1114.00,0.01
1113.50,0.00
1113.00,0.01
1112.50,0.00
1112.00,0.00
1111.50,0.00
1111.00,0.01
1110.50,0.01
1110.00,0.00
1109.50,0.00
1109.00,0.01
1108.50,0.01
1108.00,0.00
1107.50,0.00
1107.00,0.01
1106.50,0.01
1106.00,0.01
1105.50,0.01
1105.00,0.01
1104.50,0.01
1104.00,0.01
1103.50,0.01
1103.00,0.01
1102.50,0.01
1102.00,0.00
1101.50,0.00
1101.00,0.01
1100.50,0.00
1100.00,0.00
1099.50,0.01
1099.00,0.01
1098.50,0.01
1098.00,0.01
1097.50,0.01
1097.00,0.00
1096.50,0.00
1096.00,0.00
1095.50,0.00
1095.00,0.01
1094.50,0.01
1094.00,0.01
1093.50,0.00
1093.00,0.01
1092.50,0.01
1092.00,0.01
1091.50,0.01
1091.00,0.01
1090.50,0.00
1090.00,0.01
1089.50,0.01
1089.00,0.01
1088.50,0.00
1088.00,0.00
1087.50,0.01
1087.00,0.01
1086.50,0.01
1086.00,0.00
1085.50,0.00
1085.00,0.01
1084.50,0.01
1084.00,0.01
1083.50,0.01
1083.00,0.01
1082.50,0.01
1082.00,0.01
1081.50,0.00
1081.00,0.00
1080.50,0.01
1080.00,0.00
1079.50,0.00
1079.00,0.01
1078.50,0.01
1078.00,0.00
1077.50,0.00
1077.00,0.01
1076.50,0.01
1076.00,0.01
1075.50,0.00
1075.00,0.01
1074.50,0.01
1074.00,0.00
1073.50,0.00
1073.00,0.01
1072.50,0.01
1072.00,0.01
1071.50,0.01
1071.00,0.00
1070.50,0.01
1070.00,0.00
1069.50,0.00
1069.00,0.00
1068.50,0.01
1068.00,0.01
1067.50,0.01
1067.00,0.00
1066.50,0.00
1066.00,0.00
1065.50,0.01
1065.00,0.00
1064.50,0.01
1064.00,0.01
1063.50,0.01
1063.00,0.02
1062.50,0.02
1062.00,0.02
1061.50,0.01
1061.00,0.02
1060.50,0.02
1060.00,0.01
1059.50,0.01
1059.00,0.01
1058.50,0.01
1058.00,0.01
1057.50,0.01
1057.00,0.01
1056.50,0.01
1056.00,0.01
1055.50,0.01
1055.00,0.00
1054.50,0.00
1054.00,0.00
1053.50,0.00
1053.00,0.01
1052.50,0.01
1052.00,0.00
1051.50,0.01
1051.00,0.01
1050.50,0.01
1050.00,0.01
1049.50,0.01
1049.00,0.01
1048.50,0.01
1048.00,0.01
1047.50,0.01
1047.00,0.01
1046.50,0.00
1046.00,0.00
1045.50,0.00
1045.00,0.01
1044.50,0.01
1044.00,0.01
1043.50,0.01
1043.00,0.01
1042.50,0.01
1042.00,0.00
1041.50,0.00
1041.00,0.00
1040.50,0.00
1040.00,0.00
1039.50,0.00
1039.00,0.01
1038.50,0.00
1038.00,0.00
1037.50,0.00
1037.00,0.01
1036.50,0.01
1036.00,0.01
1035.50,0.01
1035.00,0.01
1034.50,0.01
1034.00,0.01
1033.50,0.01
1033.00,0.01
1032.50,0.01
1032.00,0.00
1031.50,0.00
1031.00,0.00
1030.50,0.00
1030.00,0.00
1029.50,0.00
1029.00,0.01
1028.50,0.01
1028.00,0.00
1027.50,0.00
1027.00,0.01
1026.50,0.01
1026.00,0.01
1025.50,0.01
1025.00,0.01
1024.50,0.00
1024.00,0.00
1023.50,0.01
1023.00,0.00
1022.50,0.00
1022.00,0.00
1021.50,0.01
1021.00,0.01
1020.50,0.01
1020.00,0.01
1019.50,0.01
1019.00,0.01
1018.50,0.02
1018.00,0.01
1017.50,0.01
1017.00,0.01
1016.50,0.01
1016.00,0.00
1015.50,0.00
1015.00,0.01
1014.50,0.01
1014.00,0.01
1013.50,0.01
1013.00,0.01
1012.50,0.00
1012.00,0.00
1011.50,0.00
1011.00,0.00
1010.50,0.01
1010.00,0.00
1009.50,0.00
1009.00,0.01
1008.50,0.01
1008.00,0.01
1007.50,0.01
1007.00,0.01
1006.50,0.01
1006.00,0.00
1005.50,0.00
1005.00,0.01
1004.50,0.01
1004.00,0.01
1003.50,0.01
1003.00,0.00
1002.50,0.00
1002.00,0.00
1001.50,0.00
1001.00,0.01
1000.50,0.01
1000.00,0.00
999.50,0.01
999.00,0.01
998.50,0.01
998.00,0.01
997.50,0.00
997.00,0.01
996.50,0.01
996.00,0.00
995.50,0.00
995.00,0.00
994.50,0.01
994.00,0.00
993.50,0.00
993.00,0.00
992.50,0.00
992.00,0.00
991.50,0.01
991.00,0.00
990.50,0.01
990.00,0.01
989.50,0.01
989.00,0.01
988.50,0.01
988.00,0.01
987.50,0.02
987.00,0.03
986.50,0.04
986.00,0.05
985.50,0.07
985.00,0.08
984.50,0.09
984.00,0.11
983.50,0.13
983.00,0.15
982.50,0.18
982.00,0.20
981.50,0.23
981.00,0.26
980.50,0.29
980.00,0.32
979.50,0.36
979.00,0.39
978.50,0.43
978.00,0.48
977.50,0.53
977.00,0.58
976.50,0.63
976.00,0.69
975.50,0.75
975.00,0.80
974.50,0.86
974.00,0.92
973.50,0.98
973.00,1.04
972.50,1.10
972.00,1.17
971.50,1.24
971.00,1.31
970.50,1.37
970.00,1.44
969.50,1.51
969.00,1.57
968.50,1.64
968.00,1.70
967.50,1.76
967.00,1.82
966.50,1.87
966.00,1.93
965.50,1.98
965.00,2.03
964.50,2.07
964.00,2.11
963.50,2.15
963.00,2.18
962.50,2.22
962.00,2.25
961.50,2.28
961.00,2.30
960.50,2.33
960.00,2.36
959.50,2.39
959.00,2.42
958.50,2.45
958.00,2.49
957.50,2.53
957.00,2.57
956.50,2.63
956.00,2.69
955.50,2.77
955.00,2.86
954.50,2.96
954.00,3.08
953.50,3.22
953.00,3.36
952.50,3.52
952.00,3.69
951.50,3.86
951.00,4.03
950.50,4.21
950.00,4.38
949.50,4.54
949.00,4.68
948.50,4.82
948.00,4.95
947.50,5.07
947.00,5.17
946.50,5.27
946.00,5.36
945.50,5.44
945.00,5.51
944.50,5.57
944.00,5.63
943.50,5.67
943.00,5.71
942.50,5.74
942.00,5.77
941.50,5.79
941.00,5.79
940.50,5.79
940.00,5.78
939.50,5.77
939.00,5.73
938.50,5.70
938.00,5.65
937.50,5.60
937.00,5.53
936.50,5.46
936.00,5.37
935.50,5.28
935.00,5.17
934.50,5.06
934.00,4.94
933.50,4.80
933.00,4.66
932.50,4.50
932.00,4.35
931.50,4.19
931.00,4.02
930.50,3.85
930.00,3.68
929.50,3.52
929.00,3.36
928.50,3.21
928.00,3.06
927.50,2.93
927.00,2.80
926.50,2.67
926.00,2.56
925.50,2.45
925.00,2.33
924.50,2.21
924.00,2.09
923.50,1.97
923.00,1.84
922.50,1.71
922.00,1.58
921.50,1.45
921.00,1.31
920.50,1.17
920.00,1.05
919.50,0.94
919.00,0.83
918.50,0.74
918.00,0.66
917.50,0.59
917.00,0.52
916.50,0.46
916.00,0.42
915.50,0.39
915.00,0.36
914.50,0.34
914.00,0.32
913.50,0.31
913.00,0.29
912.50,0.29
912.00,0.28
911.50,0.28
911.00,0.28
910.50,0.29
910.00,0.30
909.50,0.32
909.00,0.33
908.50,0.35
908.00,0.37
907.50,0.39
907.00,0.40
906.50,0.41
906.00,0.42
905.50,0.43
905.00,0.43
904.50,0.43
904.00,0.43
903.50,0.43
903.00,0.41
902.50,0.40
902.00,0.38
901.50,0.36
901.00,0.34
900.50,0.31
900.00,0.29
899.50,0.26
899.00,0.24
898.50,0.21
898.00,0.19
897.50,0.17
897.00,0.15
896.50,0.13
896.00,0.12
895.50,0.11
895.00,0.09
894.50,0.08
894.00,0.07
893.50,0.06
893.00,0.05
892.50,0.04
892.00,0.03
891.50,0.03
891.00,0.03
890.50,0.03
890.00,0.03
889.50,0.03
889.00,0.02
888.50,0.02
888.00,0.01
887.50,0.01
887.00,0.00
886.50,0.00
886.00,0.01
885.50,0.01
885.00,0.01
884.50,0.00
884.00,0.00
883.50,0.01
883.00,0.01
882.50,0.01
882.00,0.00
881.50,0.00
881.00,0.01
880.50,0.01
880.00,0.00
879.50,0.01
879.00,0.00
878.50,0.00
878.00,0.00
877.50,0.00
877.00,0.00
876.50,0.00
876.00,0.00
875.50,0.01
875.00,0.01
874.50,0.01
874.00,0.01
873.50,0.01
873.00,0.01
872.50,0.01
872.00,0.01
871.50,0.01
871.00,0.02
870.50,0.02
870.00,0.02
869.50,0.01
869.00,0.01
868.50,0.01
868.00,0.00
867.50,0.00
867.00,0.01
866.50,0.01
866.00,0.01
865.50,0.01
865.00,0.01
864.50,0.01
864.00,0.00
863.50,0.00
863.00,0.01
862.50,0.01
862.00,0.00
861.50,0.00
861.00,0.00
860.50,0.00
860.00,0.00
859.50,0.01
859.00,0.01
858.50,0.02
858.00,0.01
857.50,0.01
857.00,0.01
856.50,0.02
856.00,0.02
855.50,0.01
855.00,0.01
854.50,0.01
854.00,0.01
853.50,0.01
853.00,0.01
852.50,0.01
852.00,0.01
851.50,0.00
851.00,0.01
850.50,0.01
850.00,0.00
849.50,0.00
849.00,0.01
848.50,0.02
848.00,0.01
847.50,0.01
847.00,0.01
846.50,0.01
846.00,0.00
845.50,0.01
845.00,0.01
844.50,0.02
844.00,0.02
843.50,0.01
843.00,0.01
842.50,0.01
842.00,0.01
841.50,0.01
841.00,0.01
840.50,0.02
840.00,0.01
839.50,0.01
839.00,0.01
838.50,0.01
838.00,0.01
837.50,0.01
837.00,0.01
836.50,0.01
836.00,0.01
835.50,0.00
835.00,0.01
834.50,0.01
834.00,0.00
833.50,0.00
833.00,0.01
832.50,0.02
832.00,0.01
831.50,0.01
831.00,0.01
830.50,0.01
830.00,0.01
829.50,0.01
829.00,0.01
828.50,0.02
828.00,0.01
827.50,0.01
827.00,0.02
826.50,0.03
826.00,0.02
825.50,0.02
825.00,0.02
824.50,0.02
824.00,0.01
823.50,0.00
823.00,0.01
822.50,0.02
822.00,0.01
821.50,0.01
821.00,0.01
820.50,0.01
820.00,0.01
819.50,0.00
819.00,0.01
818.50,0.01
818.00,0.01
817.50,0.01
817.00,0.01
816.50,0.01
816.00,0.01
815.50,0.01
815.00,0.01
814.50,0.01
814.00,0.01
813.50,0.01
813.00,0.01
812.50,0.02
812.00,0.01
811.50,0.01
811.00,0.01
810.50,0.01
810.00,0.01
809.50,0.00
809.00,0.00
808.50,0.01
808.00,0.01
807.50,0.01
807.00,0.01
806.50,0.02
806.00,0.01
805.50,0.01
805.00,0.01
804.50,0.01
804.00,0.01
803.50,0.01
803.00,0.01
802.50,0.02
802.00,0.01
801.50,0.01
801.00,0.01
800.50,0.01
800.00,0.01
799.50,0.01
799.00,0.00
798.50,0.01
798.00,0.00
797.50,0.00
797.00,0.01
796.50,0.00
796.00,0.00
795.50,0.01
795.00,0.01
794.50,0.01
794.00,0.01
793.50,0.01
793.00,0.01
792.50,0.01
792.00,0.01
791.50,0.00
791.00,0.01
790.50,0.01
790.00,0.01
789.50,0.00
789.00,0.00
788.50,0.01
788.00,0.01
787.50,0.00
787.00,0.00
786.50,0.01
786.00,0.01
785.50,0.01
785.00,0.01
784.50,0.01
784.00,0.01
783.50,0.01
783.00,0.01
782.50,0.02
782.00,0.01
781.50,0.01
781.00,0.01
780.50,0.02
780.00,0.02
779.50,0.02
779.00,0.02
778.50,0.01
778.00,0.01
777.50,0.00
777.00,0.00
776.50,0.01
776.00,0.01
775.50,0.01
775.00,0.01
774.50,0.01
774.00,0.00
773.50,0.00
773.00,0.00
772.50,0.01
772.00,0.01
771.50,0.01
771.00,0.01
770.50,0.00
770.00,0.00
769.50,0.01
769.00,0.01
768.50,0.02
768.00,0.01
767.50,0.01
767.00,0.01
766.50,0.01
766.00,0.00
765.50,0.00
765.00,0.00
764.50,0.00
764.00,0.01
763.50,0.01
763.00,0.00
762.50,0.00
762.00,0.01
761.50,0.02
761.00,0.01
760.50,0.01
760.00,0.01
759.50,0.00
759.00,0.01
758.50,0.02
758.00,0.01
757.50,0.01
757.00,0.01
756.50,0.01
756.00,0.00
755.50,0.01
755.00,0.01
754.50,0.00
754.00,0.01
753.50,0.02
753.00,0.02
752.50,0.03
752.00,0.03
751.50,0.05
751.00,0.06
750.50,0.09
750.00,0.13
749.50,0.18
749.00,0.23
748.50,0.28
748.00,0.33
747.50,0.40
747.00,0.48
746.50,0.55
746.00,0.63
745.50,0.71
745.00,0.78
744.50,0.84
744.00,0.91
743.50,0.98
743.00,1.05
742.50,1.12
742.00,1.20
741.50,1.28
741.00,1.35
740.50,1.42
740.00,1.49
739.50,1.56
739.00,1.64
738.50,1.72
738.00,1.80
737.50,1.87
737.00,1.94
736.50,1.99
736.00,2.05
735.50,2.11
735.00,2.17
734.50,2.23
734.00,2.28
733.50,2.33
733.00,2.37
732.50,2.40
732.00,2.43
731.50,2.45
731.00,2.48
730.50,2.49
730.00,2.51
729.50,2.52
729.00,2.53
728.50,2.53
728.00,2.54
727.50,2.55
727.00,2.55
726.50,2.55
726.00,2.54
725.50,2.52
725.00,2.51
724.50,2.49
724.00,2.48
723.50,2.45
723.00,2.43
722.50,2.39
722.00,2.35
721.50,2.31
721.00,2.27
720.50,2.22
720.00,2.16
719.50,2.10
719.00,2.03
718.50,1.96
718.00,1.89
717.50,1.82
717.00,1.73
716.50,1.63
716.00,1.52
715.50,1.41
715.00,1.29
714.50,1.18
714.00,1.07
713.50,0.96
713.00,0.85
712.50,0.74
712.00,0.64
711.50,0.55
711.00,0.46
710.50,0.39
710.00,0.33
709.50,0.28
709.00,0.24
708.50,0.21
708.00,0.19
707.50,0.17
707.00,0.15
706.50,0.14
706.00,0.13
705.50,0.13
705.00,0.12
704.50,0.11
704.00,0.11
703.50,0.11
703.00,0.11
702.50,0.11
702.00,0.11
701.50,0.12
701.00,0.12
700.50,0.11
700.00,0.11
699.50,0.11
699.00,0.12
698.50,0.12
698.00,0.13
697.50,0.13
697.00,0.13
696.50,0.13
696.00,0.13
695.50,0.13
695.00,0.14
694.50,0.14
694.00,0.13
693.50,0.13
693.00,0.13
692.50,0.13
692.00,0.13
691.50,0.13
691.00,0.12
690.50,0.12
690.00,0.12
689.50,0.12
689.00,0.12
688.50,0.13
688.00,0.13
687.50,0.14
687.00,0.14
686.50,0.15
686.00,0.16
685.50,0.17
685.00,0.19
684.50,0.22
684.00,0.24
683.50,0.27
683.00,0.30
682.50,0.34
682.00,0.37
681.50,0.41
681.00,0.46
680.50,0.50
680.00,0.54
679.50,0.59
679.00,0.63
678.50,0.68
678.00,0.73
677.50,0.78
677.00,0.81
676.50,0.84
676.00,0.87
675.50,0.90
675.00,0.93
674.50,0.97
674.00,1.00
673.50,1.04
673.00,1.08
672.50,1.12
672.00,1.14
671.50,1.15
671.00,1.16
670.50,1.16
670.00,1.16
669.50,1.16
669.00,1.15
668.50,1.14
668.00,1.11
667.50,1.11
667.00,1.11
666.50,1.10
666.00,1.08
665.50,1.06
665.00,1.02
664.50,0.98
664.00,0.93
663.50,0.89
663.00,0.85
662.50,0.82
662.00,0.78
661.50,0.76
661.00,0.76
660.50,0.80
660.00,0.90
659.50,1.09
659.00,1.39
658.50,1.80
658.00,2.35
657.50,3.03
657.00,3.81
656.50,4.62
656.00,5.43
655.50,6.19
655.00,6.89
654.50,7.51
654.00,8.06
653.50,8.54
653.00,8.95
652.50,9.29
652.00,9.60
651.50,9.86
651.00,10.07
650.50,10.24
650.00,10.37
649.50,10.49
649.00,10.57
648.50,10.64
648.00,10.68
647.50,10.71
647.00,10.71
646.50,10.69
646.00,10.66
645.50,10.62
645.00,10.56
644.50,10.50
644.00,10.43
643.50,10.35
643.00,10.25
642.50,10.15
642.00,10.03
641.50,9.91
641.00,9.79
640.50,9.66
640.00,9.52
639.50,9.40
639.00,9.27
638.50,9.14
638.00,9.00
637.50,8.87
637.00,8.74
636.50,8.62
636.00,8.50
635.50,8.40
635.00,8.30
634.50,8.20
634.00,8.11
633.50,8.03
633.00,7.96
632.50,7.89
632.00,7.83
631.50,7.78
631.00,7.73
630.50,7.68
630.00,7.64
629.50,7.61
629.00,7.58
628.50,7.55
628.00,7.53
627.50,7.50
627.00,7.48
626.50,7.47
626.00,7.47
625.50,7.48
625.00,7.49
624.50,7.49
624.00,7.50
623.50,7.52
623.00,7.54
622.50,7.55
622.00,7.57
621.50,7.59
621.00,7.62
620.50,7.66
620.00,7.69
619.50,7.71
619.00,7.74
618.50,7.75
618.00,7.75
617.50,7.75
617.00,7.74
616.50,7.73
616.00,7.70
615.50,7.68
615.00,7.67
614.50,7.66
614.00,7.66
613.50,7.66
613.00,7.67
612.50,7.66
612.00,7.63
611.50,7.58
611.00,7.50
610.50,7.41
610.00,7.28
609.50,7.13
609.00,6.96
608.50,6.75
608.00,6.50
607.50,6.22
607.00,5.91
606.50,5.56
606.00,5.18
605.50,4.79
605.00,4.40
604.50,4.01
604.00,3.64
603.50,3.32
603.00,3.04
602.50,2.82
602.00,2.65
601.50,2.53
601.00,2.47
600.50,2.44
600.00,2.44
599.50,2.47
599.00,2.53
598.50,2.61
598.00,2.71
597.50,2.83
597.00,2.95
596.50,3.08
596.00,3.21
595.50,3.32
595.00,3.43
594.50,3.52
594.00,3.59
593.50,3.66
593.00,3.70
592.50,3.73
592.00,3.74
591.50,3.73
591.00,3.71
590.50,3.67
590.00,3.62
589.50,3.56
589.00,3.48
588.50,3.39
588.00,3.28
587.50,3.16
587.00,3.03
586.50,2.91
586.00,2.79
585.50,2.67
585.00,2.54
584.50,2.41
584.00,2.27
583.50,2.15
583.00,2.05
582.50,1.96
582.00,1.87
581.50,1.78
581.00,1.69
580.50,1.61
580.00,1.53
579.50,1.45
579.00,1.39
578.50,1.33
578.00,1.27
577.50,1.21
577.00,1.17
576.50,1.12
576.00,1.08
575.50,1.04
575.00,1.02
574.50,0.99
574.00,0.97
573.50,0.95
573.00,0.93
572.50,0.91
572.00,0.87
571.50,0.83
571.00,0.80
570.50,0.77
570.00,0.75
569.50,0.74
569.00,0.73
568.50,0.73
568.00,0.71
567.50,0.70
567.00,0.69
566.50,0.68
566.00,0.66
565.50,0.64
565.00,0.63
564.50,0.62
564.00,0.62
563.50,0.61
563.00,0.61
562.50,0.61
562.00,0.59
561.50,0.58
561.00,0.57
560.50,0.58
560.00,0.58
559.50,0.57
559.00,0.57
558.50,0.57
558.00,0.56
557.50,0.54
557.00,0.53
556.50,0.53
556.00,0.51
555.50,0.50
555.00,0.50
554.50,0.50
554.00,0.48
553.50,0.46
553.00,0.45
552.50,0.45
552.00,0.45
551.50,0.44
551.00,0.44
550.50,0.43
550.00,0.41
549.50,0.40
549.00,0.39
548.50,0.39
548.00,0.38
547.50,0.38
547.00,0.39
546.50,0.40
546.00,0.39
545.50,0.37
545.00,0.36
544.50,0.36
544.00,0.36
543.50,0.36
543.00,0.36
542.50,0.35
542.00,0.34
541.50,0.33
541.00,0.33
540.50,0.33
540.00,0.32
539.50,0.32
539.00,0.33
538.50,0.34
538.00,0.34
537.50,0.34
537.00,0.34
536.50,0.33
536.00,0.31
535.50,0.28
535.00,0.27
534.50,0.27
534.00,0.27
533.50,0.27
533.00,0.26
532.50,0.25
532.00,0.24
531.50,0.23
531.00,0.23
530.50,0.24
530.00,0.23
529.50,0.22
529.00,0.22
528.50,0.22
528.00,0.22
527.50,0.21
527.00,0.22
526.50,0.23
526.00,0.21
525.50,0.18
525.00,0.17
524.50,0.17
524.00,0.17
523.50,0.18
523.00,0.19
522.50,0.19
522.00,0.18
521.50,0.16
521.00,0.15
520.50,0.15
520.00,0.13
519.50,0.11
519.00,0.10
518.50,0.09
518.00,0.08
517.50,0.09
517.00,0.12
516.50,0.16
516.00,0.17
515.50,0.18
515.00,0.19
514.50,0.19
514.00,0.16
513.50,0.14
513.00,0.14
512.50,0.16
512.00,0.16
511.50,0.16
511.00,0.15
510.50,0.15
510.00,0.14
509.50,0.14
509.00,0.14
508.50,0.13
508.00,0.10
507.50,0.07
507.00,0.07
506.50,0.09
506.00,0.12
505.50,0.12
505.00,0.13
504.50,0.13
504.00,0.10
503.50,0.07
503.00,0.07
502.50,0.08
502.00,0.08
501.50,0.06
501.00,0.06
500.50,0.06
500.00,0.06
499.50,0.05
499.00,0.06
498.50,0.08
498.00,0.09
497.50,0.09
497.00,0.09
496.50,0.09
496.00,0.06
495.50,0.04
495.00,0.04
494.50,0.06
494.00,0.07
493.50,0.08
493.00,0.09
492.50,0.08
492.00,0.06
491.50,0.05
491.00,0.08
490.50,0.09
490.00,0.08
489.50,0.06
489.00,0.05
488.50,0.07
488.00,0.08
487.50,0.08
487.00,0.09
486.50,0.09
486.00,0.07
485.50,0.04
485.00,0.03
484.50,0.05
484.00,0.06
483.50,0.07
483.00,0.10
482.50,0.13
482.00,0.12
481.50,0.10
481.00,0.08
480.50,0.09
480.00,0.09
479.50,0.07
479.00,0.07
478.50,0.07
478.00,0.05
477.50,0.03
477.00,0.03
476.50,0.05
476.00,0.04
475.50,0.04
475.00,0.05
474.50,0.08
474.00,0.09
473.50,0.07
473.00,0.03
472.50,0.01
472.00,0.02
471.50,0.05
471.00,0.09
470.50,0.12
470.00,0.11
469.50,0.08
469.00,0.08
468.50,0.09
468.00,0.07
467.50,0.03
467.00,0.02
466.50,0.02
466.00,0.02
465.50,0.04
465.00,0.06
464.50,0.06
464.00,0.04
463.50,0.05
463.00,0.07
462.50,0.06
462.00,0.05
461.50,0.06
461.00,0.07
460.50,0.08
460.00,0.09
459.50,0.11
459.00,0.09
458.50,0.05
458.00,0.05
457.50,0.06
457.00,0.10
456.50,0.16
456.00,0.16
455.50,0.15
455.00,0.13
454.50,0.10
454.00,0.04
453.50,0.04
453.00,0.08
452.50,0.07
452.00,0.07
451.50,0.09
451.00,0.10
450.50,0.09
450.00,0.06
449.50,0.05
449.00,0.03
448.50,0.05
448.00,0.04
447.50,0.08
447.00,0.13
446.50,0.15
446.00,0.18
445.50,0.18
445.00,0.15
444.50,0.14
444.00,0.16
443.50,0.16
443.00,0.14
442.50,0.11
442.00,0.07
441.50,0.08
441.00,0.08
440.50,0.03
440.00,0.02
439.50,0.02
439.00,0.05
438.50,0.08
438.00,0.02
437.50,0.06
437.00,0.10
436.50,0.07
436.00,0.06
435.50,0.05
435.00,0.01
434.50,0.07
434.00,0.12
433.50,0.13
433.00,0.15
432.50,0.15
432.00,0.11
431.50,0.07
431.00,0.07
430.50,0.10
430.00,0.06
429.50,0.01
429.00,0.05
428.50,0.06
428.00,0.08
427.50,0.08
427.00,0.04
426.50,0.07
426.00,0.11
425.50,0.05
425.00,0.02
424.50,0.02
424.00,0.04
423.50,0.06
423.00,0.03
422.50,0.03
422.00,0.08
421.50,0.16
421.00,0.17
420.50,0.18
420.00,0.32
419.50,0.55
419.00,0.56
418.50,0.33
418.00,0.31
417.50,0.35
417.00,0.29
416.50,0.19
416.00,0.14
415.50,0.16
415.00,0.17
414.50,0.09
414.00,0.08
413.50,0.17
413.00,0.18
412.50,0.18
412.00,0.19
411.50,0.25
411.00,0.29
410.50,0.30
410.00,0.27
409.50,0.18
409.00,0.05
408.50,0.09
408.00,0.18
407.50,0.23
407.00,0.18
406.50,0.06
406.00,0.06
405.50,0.12
405.00,0.22
404.50,0.42
404.00,0.55
403.50,0.48
403.00,0.40
402.50,0.49
402.00,0.51
401.50,0.34
401.00,0.09
400.50,0.12
400.00,0.37
