Created as New Dataset,Sample 156 By irlear Date Wednesday, June 05 2019
cm-1,%T
4000.00,79.34
3999.50,79.36
3999.00,79.38
3998.50,79.41
3998.00,79.43
3997.50,79.45
3997.00,79.47
3996.50,79.49
3996.00,79.51
3995.50,79.54
3995.00,79.57
3994.50,79.59
3994.00,79.61
3993.50,79.63
3993.00,79.65
3992.50,79.67
3992.00,79.69
3991.50,79.72
3991.00,79.75
3990.50,79.77
3990.00,79.79
3989.50,79.81
3989.00,79.83
3988.50,79.85
3988.00,79.87
3987.50,79.89
3987.00,79.92
3986.50,79.95
3986.00,79.98
3985.50,80.01
3985.00,80.03
3984.50,80.05
3984.00,80.07
3983.50,80.08
3983.00,80.10
3982.50,80.12
3982.00,80.13
3981.50,80.15
3981.00,80.17
3980.50,80.19
3980.00,80.22
3979.50,80.24
3979.00,80.26
3978.50,80.29
3978.00,80.31
3977.50,80.34
3977.00,80.36
3976.50,80.38
3976.00,80.40
3975.50,80.41
3975.00,80.43
3974.50,80.44
3974.00,80.46
3973.50,80.48
3973.00,80.51
3972.50,80.53
3972.00,80.55
3971.50,80.57
3971.00,80.58
3970.50,80.60
3970.00,80.63
3969.50,80.65
3969.00,80.67
3968.50,80.69
3968.00,80.71
3967.50,80.72
3967.00,80.74
3966.50,80.76
3966.00,80.78
3965.50,80.80
3965.00,80.82
3964.50,80.84
3964.00,80.86
3963.50,80.87
3963.00,80.90
3962.50,80.92
3962.00,80.95
3961.50,80.96
3961.00,80.97
3960.50,80.98
3960.00,80.99
3959.50,81.01
3959.00,81.02
3958.50,81.03
3958.00,81.05
3957.50,81.06
3957.00,81.08
3956.50,81.09
3956.00,81.10
3955.50,81.10
3955.00,81.11
3954.50,81.12
3954.00,81.13
3953.50,81.14
3953.00,81.15
3952.50,81.15
3952.00,81.15
3951.50,81.16
3951.00,81.18
3950.50,81.20
3950.00,81.21
3949.50,81.22
3949.00,81.23
3948.50,81.24
3948.00,81.26
3947.50,81.27
3947.00,81.27
3946.50,81.27
3946.00,81.27
3945.50,81.27
3945.00,81.27
3944.50,81.27
3944.00,81.28
3943.50,81.30
3943.00,81.33
3942.50,81.35
3942.00,81.35
3941.50,81.36
3941.00,81.36
3940.50,81.37
3940.00,81.38
3939.50,81.39
3939.00,81.41
3938.50,81.42
3938.00,81.43
3937.50,81.44
3937.00,81.44
3936.50,81.45
3936.00,81.46
3935.50,81.47
3935.00,81.48
3934.50,81.49
3934.00,81.49
3933.50,81.50
3933.00,81.52
3932.50,81.53
3932.00,81.53
3931.50,81.52
3931.00,81.52
3930.50,81.52
3930.00,81.53
3929.50,81.53
3929.00,81.53
3928.50,81.53
3928.00,81.53
3927.50,81.52
3927.00,81.50
3926.50,81.49
3926.00,81.50
3925.50,81.53
3925.00,81.55
3924.50,81.57
3924.00,81.56
3923.50,81.56
3923.00,81.54
3922.50,81.53
3922.00,81.51
3921.50,81.51
3921.00,81.51
3920.50,81.52
3920.00,81.53
3919.50,81.51
3919.00,81.50
3918.50,81.49
3918.00,81.50
3917.50,81.51
3917.00,81.51
3916.50,81.49
3916.00,81.47
3915.50,81.45
3915.00,81.43
3914.50,81.42
3914.00,81.41
3913.50,81.40
3913.00,81.39
3912.50,81.37
3912.00,81.36
3911.50,81.35
3911.00,81.33
3910.50,81.31
3910.00,81.30
3909.50,81.28
3909.00,81.26
3908.50,81.24
3908.00,81.21
3907.50,81.18
3907.00,81.17
3906.50,81.17
3906.00,81.17
3905.50,81.17
3905.00,81.17
3904.50,81.16
3904.00,81.14
3903.50,81.10
3903.00,81.08
3902.50,81.07
3902.00,81.06
3901.50,81.02
3901.00,80.98
3900.50,80.94
3900.00,80.93
3899.50,80.94
3899.00,80.93
3898.50,80.90
3898.00,80.87
3897.50,80.85
3897.00,80.83
3896.50,80.81
3896.00,80.79
3895.50,80.77
3895.00,80.76
3894.50,80.75
3894.00,80.74
3893.50,80.73
3893.00,80.71
3892.50,80.72
3892.00,80.73
3891.50,80.74
3891.00,80.72
3890.50,80.68
3890.00,80.65
3889.50,80.64
3889.00,80.63
3888.50,80.62
3888.00,80.61
3887.50,80.60
3887.00,80.60
3886.50,80.63
3886.00,80.65
3885.50,80.64
3885.00,80.60
3884.50,80.57
3884.00,80.55
3883.50,80.54
3883.00,80.52
3882.50,80.49
3882.00,80.45
3881.50,80.45
3881.00,80.47
3880.50,80.49
3880.00,80.48
3879.50,80.46
3879.00,80.45
3878.50,80.43
3878.00,80.42
3877.50,80.40
3877.00,80.38
3876.50,80.34
3876.00,80.31
3875.50,80.28
3875.00,80.29
3874.50,80.31
3874.00,80.30
3873.50,80.28
3873.00,80.25
3872.50,80.23
3872.00,80.21
3871.50,80.19
3871.00,80.18
3870.50,80.18
3870.00,80.16
3869.50,80.11
3869.00,80.06
3868.50,80.02
3868.00,79.98
3867.50,79.95
3867.00,79.91
3866.50,79.87
3866.00,79.84
3865.50,79.82
3865.00,79.78
3864.50,79.72
3864.00,79.65
3863.50,79.60
3863.00,79.55
3862.50,79.51
3862.00,79.46
3861.50,79.39
3861.00,79.33
3860.50,79.26
3860.00,79.19
3859.50,79.12
3859.00,79.05
3858.50,78.97
3858.00,78.89
3857.50,78.82
3857.00,78.76
3856.50,78.71
3856.00,78.66
3855.50,78.59
3855.00,78.48
3854.50,78.35
3854.00,78.19
3853.50,78.05
3853.00,77.94
3852.50,77.83
3852.00,77.72
3851.50,77.61
3851.00,77.51
3850.50,77.41
3850.00,77.30
3849.50,77.19
3849.00,77.06
3848.50,76.94
3848.00,76.82
3847.50,76.70
3847.00,76.58
3846.50,76.45
3846.00,76.32
3845.50,76.18
3845.00,76.04
3844.50,75.89
3844.00,75.73
3843.50,75.58
3843.00,75.43
3842.50,75.30
3842.00,75.16
3841.50,75.03
3841.00,74.89
3840.50,74.76
3840.00,74.65
3839.50,74.54
3839.00,74.43
3838.50,74.30
3838.00,74.16
3837.50,74.03
3837.00,73.94
3836.50,73.85
3836.00,73.76
3835.50,73.66
3835.00,73.53
3834.50,73.41
3834.00,73.32
3833.50,73.24
3833.00,73.16
3832.50,73.09
3832.00,73.01
3831.50,72.93
3831.00,72.85
3830.50,72.79
3830.00,72.73
3829.50,72.67
3829.00,72.61
3828.50,72.54
3828.00,72.48
3827.50,72.44
3827.00,72.40
3826.50,72.36
3826.00,72.31
3825.50,72.27
3825.00,72.23
3824.50,72.20
3824.00,72.16
3823.50,72.12
3823.00,72.06
3822.50,71.99
3822.00,71.96
3821.50,71.97
3821.00,71.96
3820.50,71.93
3820.00,71.89
3819.50,71.85
3819.00,71.81
3818.50,71.77
3818.00,71.72
3817.50,71.67
3817.00,71.62
3816.50,71.57
3816.00,71.50
3815.50,71.42
3815.00,71.35
3814.50,71.28
3814.00,71.22
3813.50,71.16
3813.00,71.08
3812.50,71.00
3812.00,70.92
3811.50,70.84
3811.00,70.75
3810.50,70.67
3810.00,70.59
3809.50,70.51
3809.00,70.43
3808.50,70.34
3808.00,70.25
3807.50,70.15
3807.00,70.04
3806.50,69.92
3806.00,69.83
3805.50,69.75
3805.00,69.67
3804.50,69.59
3804.00,69.51
3803.50,69.42
3803.00,69.31
3802.50,69.20
3802.00,69.09
3801.50,68.98
3801.00,68.88
3800.50,68.81
3800.00,68.74
3799.50,68.66
3799.00,68.58
3798.50,68.48
3798.00,68.37
3797.50,68.24
3797.00,68.10
3796.50,67.96
3796.00,67.83
3795.50,67.71
3795.00,67.59
3794.50,67.47
3794.00,67.33
3793.50,67.18
3793.00,67.02
3792.50,66.85
3792.00,66.68
3791.50,66.50
3791.00,66.32
3790.50,66.13
3790.00,65.93
3789.50,65.73
3789.00,65.52
3788.50,65.32
3788.00,65.11
3787.50,64.90
3787.00,64.69
3786.50,64.47
3786.00,64.26
3785.50,64.03
3785.00,63.80
3784.50,63.57
3784.00,63.36
3783.50,63.17
3783.00,62.98
3782.50,62.78
3782.00,62.59
3781.50,62.41
3781.00,62.22
3780.50,62.03
3780.00,61.82
3779.50,61.59
3779.00,61.39
3778.50,61.21
3778.00,61.05
3777.50,60.90
3777.00,60.73
3776.50,60.57
3776.00,60.40
3775.50,60.24
3775.00,60.08
3774.50,59.92
3774.00,59.77
3773.50,59.62
3773.00,59.48
3772.50,59.35
3772.00,59.23
3771.50,59.10
3771.00,58.97
3770.50,58.82
3770.00,58.67
3769.50,58.55
3769.00,58.45
3768.50,58.37
3768.00,58.29
3767.50,58.20
3767.00,58.12
3766.50,58.03
3766.00,57.96
3765.50,57.89
3765.00,57.84
3764.50,57.79
3764.00,57.76
3763.50,57.72
3763.00,57.68
3762.50,57.65
3762.00,57.61
3761.50,57.57
3761.00,57.53
3760.50,57.52
3760.00,57.53
3759.50,57.54
3759.00,57.55
3758.50,57.54
3758.00,57.53
3757.50,57.54
3757.00,57.57
3756.50,57.60
3756.00,57.63
3755.50,57.65
3755.00,57.68
3754.50,57.70
3754.00,57.72
3753.50,57.73
3753.00,57.78
3752.50,57.89
3752.00,58.00
3751.50,58.07
3751.00,58.12
3750.50,58.19
3750.00,58.31
3749.50,58.46
3749.00,58.57
3748.50,58.65
3748.00,58.72
3747.50,58.80
3747.00,58.88
3746.50,58.94
3746.00,58.96
3745.50,59.02
3745.00,59.26
3744.50,59.56
3744.00,59.72
3743.50,59.80
3743.00,59.84
3742.50,59.91
3742.00,60.00
3741.50,60.12
3741.00,60.24
3740.50,60.33
3740.00,60.40
3739.50,60.46
3739.00,60.52
3738.50,60.58
3738.00,60.61
3737.50,60.62
3737.00,60.62
3736.50,60.61
3736.00,60.60
3735.50,60.57
3735.00,60.52
3734.50,60.48
3734.00,60.44
3733.50,60.39
3733.00,60.30
3732.50,60.17
3732.00,60.01
3731.50,59.85
3731.00,59.72
3730.50,59.59
3730.00,59.45
3729.50,59.29
3729.00,59.13
3728.50,58.95
3728.00,58.76
3727.50,58.55
3727.00,58.30
3726.50,58.05
3726.00,57.80
3725.50,57.57
3725.00,57.36
3724.50,57.16
3724.00,56.97
3723.50,56.76
3723.00,56.51
3722.50,56.23
3722.00,55.98
3721.50,55.78
3721.00,55.62
3720.50,55.46
3720.00,55.28
3719.50,55.07
3719.00,54.85
3718.50,54.65
3718.00,54.47
3717.50,54.30
3717.00,54.12
3716.50,53.92
3716.00,53.71
3715.50,53.50
3715.00,53.29
3714.50,53.10
3714.00,52.91
3713.50,52.69
3713.00,52.41
3712.50,52.06
3712.00,51.73
3711.50,51.49
3711.00,51.32
3710.50,51.13
3710.00,50.88
3709.50,50.61
3709.00,50.36
3708.50,50.17
3708.00,50.00
3707.50,49.83
3707.00,49.65
3706.50,49.47
3706.00,49.28
3705.50,49.11
3705.00,48.96
3704.50,48.83
3704.00,48.70
3703.50,48.58
3703.00,48.46
3702.50,48.34
3702.00,48.24
3701.50,48.17
3701.00,48.13
3700.50,48.10
3700.00,48.09
3699.50,48.09
3699.00,48.10
3698.50,48.11
3698.00,48.15
3697.50,48.20
3697.00,48.28
3696.50,48.36
3696.00,48.45
3695.50,48.53
3695.00,48.63
3694.50,48.73
3694.00,48.83
3693.50,48.93
3693.00,49.03
3692.50,49.14
3692.00,49.30
3691.50,49.51
3691.00,49.72
3690.50,49.88
3690.00,50.00
3689.50,50.15
3689.00,50.36
3688.50,50.56
3688.00,50.69
3687.50,50.76
3687.00,50.83
3686.50,50.91
3686.00,51.00
3685.50,51.10
3685.00,51.20
3684.50,51.30
3684.00,51.38
3683.50,51.44
3683.00,51.50
3682.50,51.56
3682.00,51.60
3681.50,51.63
3681.00,51.66
3680.50,51.68
3680.00,51.71
3679.50,51.72
3679.00,51.73
3678.50,51.73
3678.00,51.72
3677.50,51.69
3677.00,51.63
3676.50,51.57
3676.00,51.49
3675.50,51.40
3675.00,51.32
3674.50,51.27
3674.00,51.22
3673.50,51.18
3673.00,51.13
3672.50,51.06
3672.00,50.97
3671.50,50.83
3671.00,50.65
3670.50,50.47
3670.00,50.31
3669.50,50.18
3669.00,50.04
3668.50,49.91
3668.00,49.79
3667.50,49.67
3667.00,49.54
3666.50,49.39
3666.00,49.23
3665.50,49.05
3665.00,48.88
3664.50,48.70
3664.00,48.53
3663.50,48.36
3663.00,48.18
3662.50,48.01
3662.00,47.84
3661.50,47.66
3661.00,47.48
3660.50,47.29
3660.00,47.09
3659.50,46.89
3659.00,46.70
3658.50,46.54
3658.00,46.37
3657.50,46.17
3657.00,45.92
3656.50,45.63
3656.00,45.38
3655.50,45.20
3655.00,45.08
3654.50,44.95
3654.00,44.81
3653.50,44.67
3653.00,44.54
3652.50,44.40
3652.00,44.26
3651.50,44.11
3651.00,43.92
3650.50,43.72
3650.00,43.54
3649.50,43.40
3649.00,43.28
3648.50,43.18
3648.00,43.06
3647.50,42.95
3647.00,42.86
3646.50,42.81
3646.00,42.78
3645.50,42.76
3645.00,42.73
3644.50,42.70
3644.00,42.67
3643.50,42.64
3643.00,42.61
3642.50,42.59
3642.00,42.57
3641.50,42.57
3641.00,42.57
3640.50,42.59
3640.00,42.60
3639.50,42.63
3639.00,42.66
3638.50,42.70
3638.00,42.75
3637.50,42.80
3637.00,42.86
3636.50,42.92
3636.00,42.98
3635.50,43.04
3635.00,43.10
3634.50,43.17
3634.00,43.25
3633.50,43.34
3633.00,43.42
3632.50,43.51
3632.00,43.59
3631.50,43.67
3631.00,43.74
3630.50,43.80
3630.00,43.87
3629.50,43.95
3629.00,44.03
3628.50,44.10
3628.00,44.17
3627.50,44.24
3627.00,44.31
3626.50,44.37
3626.00,44.43
3625.50,44.48
3625.00,44.53
3624.50,44.57
3624.00,44.60
3623.50,44.63
3623.00,44.66
3622.50,44.69
3622.00,44.72
3621.50,44.74
3621.00,44.75
3620.50,44.74
3620.00,44.71
3619.50,44.68
3619.00,44.66
3618.50,44.65
3618.00,44.63
3617.50,44.61
3617.00,44.61
3616.50,44.62
3616.00,44.61
3615.50,44.59
3615.00,44.54
3614.50,44.49
3614.00,44.46
3613.50,44.41
3613.00,44.35
3612.50,44.27
3612.00,44.23
3611.50,44.22
3611.00,44.22
3610.50,44.21
3610.00,44.15
3609.50,44.05
3609.00,43.95
3608.50,43.88
3608.00,43.83
3607.50,43.77
3607.00,43.70
3606.50,43.64
3606.00,43.60
3605.50,43.57
3605.00,43.53
3604.50,43.48
3604.00,43.42
3603.50,43.35
3603.00,43.29
3602.50,43.22
3602.00,43.15
3601.50,43.08
3601.00,43.00
3600.50,42.94
3600.00,42.88
3599.50,42.82
3599.00,42.75
3598.50,42.67
3598.00,42.59
3597.50,42.54
3597.00,42.49
3596.50,42.43
3596.00,42.36
3595.50,42.28
3595.00,42.22
3594.50,42.19
3594.00,42.16
3593.50,42.13
3593.00,42.08
3592.50,42.05
3592.00,42.02
3591.50,42.01
3591.00,42.00
3590.50,41.99
3590.00,41.97
3589.50,41.94
3589.00,41.90
3588.50,41.85
3588.00,41.82
3587.50,41.79
3587.00,41.75
3586.50,41.72
3586.00,41.70
3585.50,41.70
3585.00,41.72
3584.50,41.74
3584.00,41.77
3583.50,41.83
3583.00,41.90
3582.50,41.98
3582.00,42.06
3581.50,42.14
3581.00,42.20
3580.50,42.26
3580.00,42.31
3579.50,42.36
3579.00,42.41
3578.50,42.47
3578.00,42.52
3577.50,42.57
3577.00,42.61
3576.50,42.66
3576.00,42.70
3575.50,42.75
3575.00,42.79
3574.50,42.83
3574.00,42.87
3573.50,42.91
3573.00,42.96
3572.50,43.01
3572.00,43.06
3571.50,43.11
3571.00,43.17
3570.50,43.22
3570.00,43.27
3569.50,43.32
3569.00,43.36
3568.50,43.38
3568.00,43.40
3567.50,43.42
3567.00,43.45
3566.50,43.47
3566.00,43.50
3565.50,43.54
3565.00,43.60
3564.50,43.66
3564.00,43.71
3563.50,43.74
3563.00,43.78
3562.50,43.83
3562.00,43.87
3561.50,43.91
3561.00,43.93
3560.50,43.94
3560.00,43.95
3559.50,43.96
3559.00,43.99
3558.50,44.02
3558.00,44.04
3557.50,44.05
3557.00,44.05
3556.50,44.06
3556.00,44.08
3555.50,44.09
3555.00,44.11
3554.50,44.12
3554.00,44.13
3553.50,44.13
3553.00,44.13
3552.50,44.11
3552.00,44.09
3551.50,44.08
3551.00,44.08
3550.50,44.09
3550.00,44.09
3549.50,44.09
3549.00,44.10
3548.50,44.10
3548.00,44.10
3547.50,44.09
3547.00,44.08
3546.50,44.07
3546.00,44.06
3545.50,44.04
3545.00,44.01
3544.50,43.98
3544.00,43.96
3543.50,43.95
3543.00,43.94
3542.50,43.92
3542.00,43.91
3541.50,43.89
3541.00,43.87
3540.50,43.85
3540.00,43.83
3539.50,43.82
3539.00,43.81
3538.50,43.81
3538.00,43.82
3537.50,43.82
3537.00,43.80
3536.50,43.76
3536.00,43.72
3535.50,43.69
3535.00,43.68
3534.50,43.67
3534.00,43.66
3533.50,43.65
3533.00,43.64
3532.50,43.63
3532.00,43.62
3531.50,43.61
3531.00,43.60
3530.50,43.59
3530.00,43.59
3529.50,43.58
3529.00,43.57
3528.50,43.55
3528.00,43.54
3527.50,43.52
3527.00,43.51
3526.50,43.51
3526.00,43.52
3525.50,43.53
3525.00,43.54
3524.50,43.55
3524.00,43.54
3523.50,43.51
3523.00,43.47
3522.50,43.45
3522.00,43.44
3521.50,43.44
3521.00,43.45
3520.50,43.45
3520.00,43.45
3519.50,43.45
3519.00,43.45
3518.50,43.45
3518.00,43.46
3517.50,43.46
3517.00,43.46
3516.50,43.47
3516.00,43.48
3515.50,43.49
3515.00,43.51
3514.50,43.52
3514.00,43.53
3513.50,43.54
3513.00,43.54
3512.50,43.54
3512.00,43.54
3511.50,43.56
3511.00,43.57
3510.50,43.59
3510.00,43.58
3509.50,43.57
3509.00,43.57
3508.50,43.57
3508.00,43.59
3507.50,43.61
3507.00,43.63
3506.50,43.65
3506.00,43.67
3505.50,43.69
3505.00,43.72
3504.50,43.74
3504.00,43.75
3503.50,43.75
3503.00,43.75
3502.50,43.74
3502.00,43.74
3501.50,43.74
3501.00,43.75
3500.50,43.77
3500.00,43.78
3499.50,43.80
3499.00,43.82
3498.50,43.84
3498.00,43.86
3497.50,43.87
3497.00,43.87
3496.50,43.87
3496.00,43.87
3495.50,43.88
3495.00,43.89
3494.50,43.90
3494.00,43.90
3493.50,43.91
3493.00,43.92
3492.50,43.93
3492.00,43.94
3491.50,43.95
3491.00,43.96
3490.50,43.98
3490.00,44.00
3489.50,44.02
3489.00,44.04
3488.50,44.05
3488.00,44.05
3487.50,44.06
3487.00,44.08
3486.50,44.09
3486.00,44.10
3485.50,44.11
3485.00,44.12
3484.50,44.14
3484.00,44.16
3483.50,44.18
3483.00,44.20
3482.50,44.21
3482.00,44.22
3481.50,44.24
3481.00,44.27
3480.50,44.29
3480.00,44.30
3479.50,44.32
3479.00,44.33
3478.50,44.34
3478.00,44.36
3477.50,44.37
3477.00,44.40
3476.50,44.42
3476.00,44.44
3475.50,44.45
3475.00,44.46
3474.50,44.47
3474.00,44.49
3473.50,44.51
3473.00,44.53
3472.50,44.56
3472.00,44.58
3471.50,44.61
3471.00,44.63
3470.50,44.66
3470.00,44.68
3469.50,44.70
3469.00,44.73
3468.50,44.75
3468.00,44.77
3467.50,44.79
3467.00,44.80
3466.50,44.81
3466.00,44.82
3465.50,44.83
3465.00,44.85
3464.50,44.88
3464.00,44.90
3463.50,44.91
3463.00,44.93
3462.50,44.94
3462.00,44.96
3461.50,44.99
3461.00,45.02
3460.50,45.04
3460.00,45.06
3459.50,45.08
3459.00,45.09
3458.50,45.11
3458.00,45.13
3457.50,45.15
3457.00,45.17
3456.50,45.19
3456.00,45.21
3455.50,45.24
3455.00,45.26
3454.50,45.29
3454.00,45.32
3453.50,45.35
3453.00,45.37
3452.50,45.40
3452.00,45.43
3451.50,45.46
3451.00,45.49
3450.50,45.51
3450.00,45.55
3449.50,45.58
3449.00,45.63
3448.50,45.68
3448.00,45.71
3447.50,45.71
3447.00,45.71
3446.50,45.73
3446.00,45.76
3445.50,45.80
3445.00,45.84
3444.50,45.87
3444.00,45.91
3443.50,45.95
3443.00,45.97
3442.50,45.98
3442.00,46.00
3441.50,46.03
3441.00,46.07
3440.50,46.10
3440.00,46.14
3439.50,46.17
3439.00,46.21
3438.50,46.25
3438.00,46.28
3437.50,46.31
3437.00,46.34
3436.50,46.37
3436.00,46.39
3435.50,46.41
3435.00,46.44
3434.50,46.46
3434.00,46.48
3433.50,46.51
3433.00,46.53
3432.50,46.56
3432.00,46.59
3431.50,46.62
3431.00,46.64
3430.50,46.66
3430.00,46.69
3429.50,46.72
3429.00,46.75
3428.50,46.77
3428.00,46.78
3427.50,46.80
3427.00,46.82
3426.50,46.84
3426.00,46.87
3425.50,46.90
3425.00,46.92
3424.50,46.95
3424.00,46.98
3423.50,47.01
3423.00,47.04
3422.50,47.07
3422.00,47.11
3421.50,47.14
3421.00,47.16
3420.50,47.18
3420.00,47.19
3419.50,47.21
3419.00,47.24
3418.50,47.28
3418.00,47.31
3417.50,47.34
3417.00,47.37
3416.50,47.40
3416.00,47.43
3415.50,47.47
3415.00,47.50
3414.50,47.54
3414.00,47.58
3413.50,47.61
3413.00,47.63
3412.50,47.66
3412.00,47.68
3411.50,47.71
3411.00,47.74
3410.50,47.77
3410.00,47.81
3409.50,47.84
3409.00,47.87
3408.50,47.90
3408.00,47.92
3407.50,47.94
3407.00,47.97
3406.50,48.00
3406.00,48.03
3405.50,48.06
3405.00,48.10
3404.50,48.13
3404.00,48.17
3403.50,48.20
3403.00,48.24
3402.50,48.27
3402.00,48.31
3401.50,48.34
3401.00,48.37
3400.50,48.40
3400.00,48.43
3399.50,48.46
3399.00,48.49
3398.50,48.52
3398.00,48.54
3397.50,48.56
3397.00,48.59
3396.50,48.62
3396.00,48.66
3395.50,48.70
3395.00,48.74
3394.50,48.78
3394.00,48.82
3393.50,48.86
3393.00,48.88
3392.50,48.91
3392.00,48.94
3391.50,48.97
3391.00,49.01
3390.50,49.04
3390.00,49.07
3389.50,49.10
3389.00,49.13
3388.50,49.16
3388.00,49.20
3387.50,49.23
3387.00,49.27
3386.50,49.31
3386.00,49.34
3385.50,49.38
3385.00,49.41
3384.50,49.44
3384.00,49.48
3383.50,49.51
3383.00,49.55
3382.50,49.59
3382.00,49.63
3381.50,49.67
3381.00,49.71
3380.50,49.74
3380.00,49.77
3379.50,49.80
3379.00,49.84
3378.50,49.87
3378.00,49.91
3377.50,49.94
3377.00,49.98
3376.50,50.00
3376.00,50.03
3375.50,50.06
3375.00,50.09
3374.50,50.12
3374.00,50.15
3373.50,50.18
3373.00,50.22
3372.50,50.26
3372.00,50.29
3371.50,50.33
3371.00,50.37
3370.50,50.41
3370.00,50.44
3369.50,50.48
3369.00,50.51
3368.50,50.54
3368.00,50.57
3367.50,50.60
3367.00,50.63
3366.50,50.66
3366.00,50.68
3365.50,50.70
3365.00,50.73
3364.50,50.76
3364.00,50.79
3363.50,50.82
3363.00,50.86
3362.50,50.90
3362.00,50.94
3361.50,50.98
3361.00,51.01
3360.50,51.05
3360.00,51.08
3359.50,51.11
3359.00,51.14
3358.50,51.17
3358.00,51.21
3357.50,51.24
3357.00,51.28
3356.50,51.32
3356.00,51.35
3355.50,51.39
3355.00,51.42
3354.50,51.46
3354.00,51.50
3353.50,51.54
3353.00,51.59
3352.50,51.63
3352.00,51.67
3351.50,51.72
3351.00,51.75
3350.50,51.79
3350.00,51.83
3349.50,51.86
3349.00,51.90
3348.50,51.94
3348.00,51.97
3347.50,52.01
3347.00,52.05
3346.50,52.09
3346.00,52.14
3345.50,52.18
3345.00,52.22
3344.50,52.27
3344.00,52.31
3343.50,52.36
3343.00,52.40
3342.50,52.44
3342.00,52.48
3341.50,52.52
3341.00,52.57
3340.50,52.62
3340.00,52.66
3339.50,52.71
3339.00,52.76
3338.50,52.80
3338.00,52.84
3337.50,52.88
3337.00,52.92
3336.50,52.96
3336.00,53.00
3335.50,53.04
3335.00,53.08
3334.50,53.12
3334.00,53.16
3333.50,53.20
3333.00,53.25
3332.50,53.29
3332.00,53.34
3331.50,53.38
3331.00,53.43
3330.50,53.47
3330.00,53.51
3329.50,53.55
3329.00,53.60
3328.50,53.64
3328.00,53.69
3327.50,53.74
3327.00,53.78
3326.50,53.83
3326.00,53.87
3325.50,53.91
3325.00,53.95
3324.50,53.99
3324.00,54.03
3323.50,54.07
3323.00,54.12
3322.50,54.16
3322.00,54.20
3321.50,54.24
3321.00,54.29
3320.50,54.33
3320.00,54.38
3319.50,54.42
3319.00,54.47
3318.50,54.51
3318.00,54.56
3317.50,54.60
3317.00,54.65
3316.50,54.70
3316.00,54.75
3315.50,54.80
3315.00,54.85
3314.50,54.89
3314.00,54.94
3313.50,54.98
3313.00,55.03
3312.50,55.08
3312.00,55.13
3311.50,55.18
3311.00,55.23
3310.50,55.28
3310.00,55.33
3309.50,55.37
3309.00,55.41
3308.50,55.45
3308.00,55.49
3307.50,55.53
3307.00,55.58
3306.50,55.62
3306.00,55.66
3305.50,55.70
3305.00,55.75
3304.50,55.79
3304.00,55.82
3303.50,55.86
3303.00,55.89
3302.50,55.93
3302.00,55.97
3301.50,56.01
3301.00,56.05
3300.50,56.09
3300.00,56.12
3299.50,56.16
3299.00,56.20
3298.50,56.24
3298.00,56.28
3297.50,56.32
3297.00,56.36
3296.50,56.40
3296.00,56.43
3295.50,56.47
3295.00,56.51
3294.50,56.54
3294.00,56.57
3293.50,56.61
3293.00,56.65
3292.50,56.68
3292.00,56.71
3291.50,56.74
3291.00,56.77
3290.50,56.80
3290.00,56.83
3289.50,56.87
3289.00,56.90
3288.50,56.93
3288.00,56.96
3287.50,56.99
3287.00,57.02
3286.50,57.05
3286.00,57.08
3285.50,57.11
3285.00,57.14
3284.50,57.17
3284.00,57.20
3283.50,57.23
3283.00,57.26
3282.50,57.28
3282.00,57.31
3281.50,57.34
3281.00,57.37
3280.50,57.40
3280.00,57.42
3279.50,57.45
3279.00,57.47
3278.50,57.50
3278.00,57.53
3277.50,57.56
3277.00,57.59
3276.50,57.61
3276.00,57.63
3275.50,57.66
3275.00,57.69
3274.50,57.71
3274.00,57.73
3273.50,57.75
3273.00,57.77
3272.50,57.80
3272.00,57.82
3271.50,57.84
3271.00,57.86
3270.50,57.88
3270.00,57.90
3269.50,57.92
3269.00,57.93
3268.50,57.95
3268.00,57.97
3267.50,57.99
3267.00,58.01
3266.50,58.03
3266.00,58.05
3265.50,58.07
3265.00,58.09
3264.50,58.10
3264.00,58.12
3263.50,58.14
3263.00,58.16
3262.50,58.18
3262.00,58.19
3261.50,58.21
3261.00,58.23
3260.50,58.24
3260.00,58.26
3259.50,58.28
3259.00,58.30
3258.50,58.32
3258.00,58.33
3257.50,58.35
3257.00,58.37
3256.50,58.39
3256.00,58.40
3255.50,58.42
3255.00,58.43
3254.50,58.44
3254.00,58.45
3253.50,58.46
3253.00,58.48
3252.50,58.49
3252.00,58.50
3251.50,58.52
3251.00,58.53
3250.50,58.54
3250.00,58.55
3249.50,58.57
3249.00,58.58
3248.50,58.59
3248.00,58.61
3247.50,58.62
3247.00,58.63
3246.50,58.64
3246.00,58.65
3245.50,58.66
3245.00,58.66
3244.50,58.67
3244.00,58.67
3243.50,58.68
3243.00,58.70
3242.50,58.71
3242.00,58.71
3241.50,58.72
3241.00,58.73
3240.50,58.74
3240.00,58.75
3239.50,58.76
3239.00,58.76
3238.50,58.77
3238.00,58.78
3237.50,58.78
3237.00,58.79
3236.50,58.79
3236.00,58.80
3235.50,58.81
3235.00,58.82
3234.50,58.83
3234.00,58.84
3233.50,58.84
3233.00,58.84
3232.50,58.84
3232.00,58.84
3231.50,58.85
3231.00,58.85
3230.50,58.86
3230.00,58.86
3229.50,58.86
3229.00,58.87
3228.50,58.88
3228.00,58.88
3227.50,58.88
3227.00,58.89
3226.50,58.89
3226.00,58.89
3225.50,58.90
3225.00,58.90
3224.50,58.91
3224.00,58.92
3223.50,58.93
3223.00,58.93
3222.50,58.94
3222.00,58.95
3221.50,58.95
3221.00,58.96
3220.50,58.97
3220.00,58.98
3219.50,58.99
3219.00,59.00
3218.50,59.00
3218.00,59.01
3217.50,59.02
3217.00,59.03
3216.50,59.03
3216.00,59.04
3215.50,59.05
3215.00,59.06
3214.50,59.06
3214.00,59.06
3213.50,59.07
3213.00,59.07
3212.50,59.07
3212.00,59.08
3211.50,59.08
3211.00,59.08
3210.50,59.08
3210.00,59.08
3209.50,59.07
3209.00,59.07
3208.50,59.07
3208.00,59.07
3207.50,59.07
3207.00,59.06
3206.50,59.06
3206.00,59.05
3205.50,59.05
3205.00,59.04
3204.50,59.04
3204.00,59.03
3203.50,59.03
3203.00,59.02
3202.50,59.02
3202.00,59.01
3201.50,58.99
3201.00,58.98
3200.50,58.97
3200.00,58.96
3199.50,58.96
3199.00,58.95
3198.50,58.94
3198.00,58.92
3197.50,58.90
3197.00,58.89
3196.50,58.87
3196.00,58.85
3195.50,58.83
3195.00,58.82
3194.50,58.80
3194.00,58.77
3193.50,58.75
3193.00,58.72
3192.50,58.69
3192.00,58.65
3191.50,58.62
3191.00,58.58
3190.50,58.54
3190.00,58.50
3189.50,58.46
3189.00,58.42
3188.50,58.38
3188.00,58.34
3187.50,58.31
3187.00,58.29
3186.50,58.27
3186.00,58.26
3185.50,58.26
3185.00,58.27
3184.50,58.28
3184.00,58.30
3183.50,58.33
3183.00,58.36
3182.50,58.40
3182.00,58.44
3181.50,58.48
3181.00,58.52
3180.50,58.56
3180.00,58.59
3179.50,58.62
3179.00,58.64
3178.50,58.67
3178.00,58.68
3177.50,58.70
3177.00,58.71
3176.50,58.72
3176.00,58.72
3175.50,58.73
3175.00,58.73
3174.50,58.72
3174.00,58.72
3173.50,58.71
3173.00,58.71
3172.50,58.70
3172.00,58.68
3171.50,58.67
3171.00,58.65
3170.50,58.63
3170.00,58.61
3169.50,58.59
3169.00,58.57
3168.50,58.54
3168.00,58.51
3167.50,58.48
3167.00,58.45
3166.50,58.42
3166.00,58.39
3165.50,58.35
3165.00,58.32
3164.50,58.28
3164.00,58.24
3163.50,58.19
3163.00,58.15
3162.50,58.11
3162.00,58.06
3161.50,58.02
3161.00,57.97
3160.50,57.91
3160.00,57.86
3159.50,57.80
3159.00,57.75
3158.50,57.69
3158.00,57.63
3157.50,57.57
3157.00,57.51
3156.50,57.45
3156.00,57.39
3155.50,57.32
3155.00,57.26
3154.50,57.19
3154.00,57.12
3153.50,57.05
3153.00,56.98
3152.50,56.91
3152.00,56.82
3151.50,56.74
3151.00,56.65
3150.50,56.57
3150.00,56.48
3149.50,56.39
3149.00,56.30
3148.50,56.22
3148.00,56.12
3147.50,56.03
3147.00,55.94
3146.50,55.84
3146.00,55.74
3145.50,55.64
3145.00,55.53
3144.50,55.43
3144.00,55.33
3143.50,55.22
3143.00,55.11
3142.50,55.00
3142.00,54.89
3141.50,54.77
3141.00,54.66
3140.50,54.54
3140.00,54.42
3139.50,54.29
3139.00,54.16
3138.50,54.02
3138.00,53.88
3137.50,53.74
3137.00,53.60
3136.50,53.46
3136.00,53.31
3135.50,53.17
3135.00,53.02
3134.50,52.87
3134.00,52.72
3133.50,52.58
3133.00,52.43
3132.50,52.27
3132.00,52.12
3131.50,51.98
3131.00,51.83
3130.50,51.68
3130.00,51.52
3129.50,51.36
3129.00,51.20
3128.50,51.05
3128.00,50.89
3127.50,50.74
3127.00,50.59
3126.50,50.43
3126.00,50.28
3125.50,50.14
3125.00,50.00
3124.50,49.86
3124.00,49.72
3123.50,49.59
3123.00,49.46
3122.50,49.33
3122.00,49.20
3121.50,49.08
3121.00,48.96
3120.50,48.85
3120.00,48.73
3119.50,48.62
3119.00,48.51
3118.50,48.41
3118.00,48.31
3117.50,48.21
3117.00,48.12
3116.50,48.03
3116.00,47.94
3115.50,47.86
3115.00,47.78
3114.50,47.71
3114.00,47.64
3113.50,47.57
3113.00,47.51
3112.50,47.45
3112.00,47.40
3111.50,47.36
3111.00,47.32
3110.50,47.28
3110.00,47.25
3109.50,47.23
3109.00,47.20
3108.50,47.17
3108.00,47.15
3107.50,47.12
3107.00,47.10
3106.50,47.08
3106.00,47.07
3105.50,47.06
3105.00,47.05
3104.50,47.05
3104.00,47.04
3103.50,47.04
3103.00,47.04
3102.50,47.05
3102.00,47.05
3101.50,47.06
3101.00,47.07
3100.50,47.08
3100.00,47.09
3099.50,47.09
3099.00,47.09
3098.50,47.08
3098.00,47.08
3097.50,47.08
3097.00,47.08
3096.50,47.08
3096.00,47.08
3095.50,47.09
3095.00,47.09
3094.50,47.08
3094.00,47.08
3093.50,47.08
3093.00,47.07
3092.50,47.07
3092.00,47.07
3091.50,47.06
3091.00,47.05
3090.50,47.03
3090.00,47.01
3089.50,46.99
3089.00,46.96
3088.50,46.94
3088.00,46.91
3087.50,46.89
3087.00,46.86
3086.50,46.82
3086.00,46.78
3085.50,46.75
3085.00,46.71
3084.50,46.67
3084.00,46.62
3083.50,46.57
3083.00,46.52
3082.50,46.46
3082.00,46.41
3081.50,46.35
3081.00,46.29
3080.50,46.23
3080.00,46.16
3079.50,46.10
3079.00,46.03
3078.50,45.95
3078.00,45.87
3077.50,45.79
3077.00,45.70
3076.50,45.61
3076.00,45.51
3075.50,45.41
3075.00,45.30
3074.50,45.20
3074.00,45.08
3073.50,44.97
3073.00,44.85
3072.50,44.73
3072.00,44.60
3071.50,44.46
3071.00,44.32
3070.50,44.17
3070.00,44.01
3069.50,43.85
3069.00,43.68
3068.50,43.50
3068.00,43.31
3067.50,43.10
3067.00,42.87
3066.50,42.64
3066.00,42.39
3065.50,42.14
3065.00,41.87
3064.50,41.58
3064.00,41.27
3063.50,40.96
3063.00,40.63
3062.50,40.28
3062.00,39.92
3061.50,39.54
3061.00,39.15
3060.50,38.75
3060.00,38.34
3059.50,37.93
3059.00,37.52
3058.50,37.12
3058.00,36.73
3057.50,36.34
3057.00,35.98
3056.50,35.63
3056.00,35.32
3055.50,35.06
3055.00,34.84
3054.50,34.66
3054.00,34.53
3053.50,34.46
3053.00,34.46
3052.50,34.52
3052.00,34.65
3051.50,34.84
3051.00,35.09
3050.50,35.39
3050.00,35.75
3049.50,36.14
3049.00,36.57
3048.50,37.01
3048.00,37.46
3047.50,37.90
3047.00,38.32
3046.50,38.73
3046.00,39.10
3045.50,39.44
3045.00,39.75
3044.50,40.03
3044.00,40.28
3043.50,40.51
3043.00,40.71
3042.50,40.88
3042.00,41.03
3041.50,41.16
3041.00,41.27
3040.50,41.37
3040.00,41.45
3039.50,41.52
3039.00,41.59
3038.50,41.64
3038.00,41.69
3037.50,41.73
3037.00,41.77
3036.50,41.79
3036.00,41.81
3035.50,41.82
3035.00,41.82
3034.50,41.81
3034.00,41.79
3033.50,41.76
3033.00,41.72
3032.50,41.67
3032.00,41.61
3031.50,41.55
3031.00,41.47
3030.50,41.39
3030.00,41.29
3029.50,41.18
3029.00,41.06
3028.50,40.94
3028.00,40.80
3027.50,40.65
3027.00,40.49
3026.50,40.32
3026.00,40.14
3025.50,39.95
3025.00,39.74
3024.50,39.51
3024.00,39.26
3023.50,39.00
3023.00,38.73
3022.50,38.45
3022.00,38.16
3021.50,37.86
3021.00,37.56
3020.50,37.25
3020.00,36.94
3019.50,36.63
3019.00,36.32
3018.50,36.02
3018.00,35.73
3017.50,35.46
3017.00,35.20
3016.50,34.95
3016.00,34.71
3015.50,34.50
3015.00,34.29
3014.50,34.10
3014.00,33.92
3013.50,33.74
3013.00,33.57
3012.50,33.40
3012.00,33.22
3011.50,33.04
3011.00,32.85
3010.50,32.64
3010.00,32.42
3009.50,32.17
3009.00,31.92
3008.50,31.64
3008.00,31.34
3007.50,31.02
3007.00,30.69
3006.50,30.33
3006.00,29.96
3005.50,29.57
3005.00,29.16
3004.50,28.73
3004.00,28.28
3003.50,27.82
3003.00,27.33
3002.50,26.84
3002.00,26.32
3001.50,25.79
3001.00,25.25
3000.50,24.69
3000.00,24.11
2999.50,23.53
2999.00,22.93
2998.50,22.32
2998.00,21.69
2997.50,21.05
2997.00,20.39
2996.50,19.72
2996.00,19.03
2995.50,18.34
2995.00,17.64
2994.50,16.92
2994.00,16.20
2993.50,15.48
2993.00,14.76
2992.50,14.03
2992.00,13.29
2991.50,12.55
2991.00,11.81
2990.50,11.07
2990.00,10.34
2989.50,9.62
2989.00,8.91
2988.50,8.21
2988.00,7.52
2987.50,6.86
2987.00,6.22
2986.50,5.60
2986.00,5.01
2985.50,4.44
2985.00,3.91
2984.50,3.41
2984.00,2.95
2983.50,2.53
2983.00,2.14
2982.50,1.79
2982.00,1.48
2981.50,1.21
2981.00,0.97
2980.50,0.76
2980.00,0.58
2979.50,0.43
2979.00,0.32
2978.50,0.22
2978.00,0.13
2977.50,0.08
2977.00,0.04
2976.50,0.02
2976.00,0.00
2975.50,-0.00
2975.00,-0.00
2974.50,0.00
2974.00,0.02
2973.50,0.03
2973.00,0.03
2972.50,0.04
2972.00,0.05
2971.50,0.06
2971.00,0.06
2970.50,0.07
2970.00,0.07
2969.50,0.07
2969.00,0.07
2968.50,0.07
2968.00,0.08
2967.50,0.07
2967.00,0.07
2966.50,0.07
2966.00,0.08
2965.50,0.07
2965.00,0.07
2964.50,0.07
2964.00,0.06
2963.50,0.06
2963.00,0.05
2962.50,0.05
2962.00,0.05
2961.50,0.06
2961.00,0.06
2960.50,0.07
2960.00,0.08
2959.50,0.08
2959.00,0.07
2958.50,0.08
2958.00,0.08
2957.50,0.08
2957.00,0.08
2956.50,0.08
2956.00,0.08
2955.50,0.07
2955.00,0.07
2954.50,0.06
2954.00,0.05
2953.50,0.03
2953.00,0.02
2952.50,0.02
2952.00,0.02
2951.50,0.03
2951.00,0.03
2950.50,0.04
2950.00,0.06
2949.50,0.09
2949.00,0.14
2948.50,0.20
2948.00,0.29
2947.50,0.38
2947.00,0.50
2946.50,0.63
2946.00,0.78
2945.50,0.96
2945.00,1.16
2944.50,1.39
2944.00,1.63
2943.50,1.90
2943.00,2.19
2942.50,2.49
2942.00,2.81
2941.50,3.15
2941.00,3.52
2940.50,3.90
2940.00,4.29
2939.50,4.70
2939.00,5.12
2938.50,5.54
2938.00,5.97
2937.50,6.41
2937.00,6.86
2936.50,7.30
2936.00,7.75
2935.50,8.19
2935.00,8.63
2934.50,9.06
2934.00,9.49
2933.50,9.91
2933.00,10.32
2932.50,10.72
2932.00,11.10
2931.50,11.48
2931.00,11.85
2930.50,12.20
2930.00,12.52
2929.50,12.83
2929.00,13.12
2928.50,13.38
2928.00,13.63
2927.50,13.85
2927.00,14.05
2926.50,14.22
2926.00,14.36
2925.50,14.48
2925.00,14.57
2924.50,14.62
2924.00,14.65
2923.50,14.64
2923.00,14.61
2922.50,14.54
2922.00,14.43
2921.50,14.30
2921.00,14.13
2920.50,13.93
2920.00,13.69
2919.50,13.42
2919.00,13.12
2918.50,12.77
2918.00,12.39
2917.50,11.98
2917.00,11.54
2916.50,11.06
2916.00,10.56
2915.50,10.04
2915.00,9.50
2914.50,8.94
2914.00,8.37
2913.50,7.81
2913.00,7.24
2912.50,6.69
2912.00,6.15
2911.50,5.64
2911.00,5.16
2910.50,4.70
2910.00,4.28
2909.50,3.91
2909.00,3.58
2908.50,3.28
2908.00,3.03
2907.50,2.82
2907.00,2.66
2906.50,2.53
2906.00,2.44
2905.50,2.38
2905.00,2.37
2904.50,2.38
2904.00,2.43
2903.50,2.51
2903.00,2.63
2902.50,2.79
2902.00,2.97
2901.50,3.21
2901.00,3.48
2900.50,3.79
2900.00,4.14
2899.50,4.53
2899.00,4.97
2898.50,5.45
2898.00,5.97
2897.50,6.53
2897.00,7.13
2896.50,7.76
2896.00,8.42
2895.50,9.11
2895.00,9.82
2894.50,10.55
2894.00,11.29
2893.50,12.05
2893.00,12.81
2892.50,13.58
2892.00,14.34
2891.50,15.11
2891.00,15.88
2890.50,16.63
2890.00,17.37
2889.50,18.11
2889.00,18.83
2888.50,19.54
2888.00,20.24
2887.50,20.93
2887.00,21.60
2886.50,22.25
2886.00,22.89
2885.50,23.52
2885.00,24.14
2884.50,24.74
2884.00,25.32
2883.50,25.89
2883.00,26.45
2882.50,27.00
2882.00,27.53
2881.50,28.05
2881.00,28.57
2880.50,29.07
2880.00,29.55
2879.50,30.03
2879.00,30.50
2878.50,30.97
2878.00,31.42
2877.50,31.87
2877.00,32.32
2876.50,32.75
2876.00,33.19
2875.50,33.62
2875.00,34.04
2874.50,34.46
2874.00,34.87
2873.50,35.28
2873.00,35.68
2872.50,36.07
2872.00,36.46
2871.50,36.84
2871.00,37.21
2870.50,37.58
2870.00,37.94
2869.50,38.29
2869.00,38.63
2868.50,38.95
2868.00,39.27
2867.50,39.57
2867.00,39.86
2866.50,40.15
2866.00,40.42
2865.50,40.68
2865.00,40.93
2864.50,41.17
2864.00,41.40
2863.50,41.61
2863.00,41.82
2862.50,42.02
2862.00,42.21
2861.50,42.38
2861.00,42.55
2860.50,42.70
2860.00,42.84
2859.50,42.98
2859.00,43.11
2858.50,43.24
2858.00,43.36
2857.50,43.47
2857.00,43.58
2856.50,43.68
2856.00,43.77
2855.50,43.87
2855.00,43.96
2854.50,44.04
2854.00,44.12
2853.50,44.20
2853.00,44.27
2852.50,44.34
2852.00,44.40
2851.50,44.47
2851.00,44.53
2850.50,44.60
2850.00,44.65
2849.50,44.71
2849.00,44.77
2848.50,44.83
2848.00,44.89
2847.50,44.94
2847.00,45.00
2846.50,45.06
2846.00,45.12
2845.50,45.17
2845.00,45.22
2844.50,45.27
2844.00,45.31
2843.50,45.36
2843.00,45.41
2842.50,45.47
2842.00,45.52
2841.50,45.57
2841.00,45.63
2840.50,45.69
2840.00,45.76
2839.50,45.83
2839.00,45.91
2838.50,45.99
2838.00,46.08
2837.50,46.18
2837.00,46.29
2836.50,46.40
2836.00,46.52
2835.50,46.63
2835.00,46.75
2834.50,46.87
2834.00,47.00
2833.50,47.12
2833.00,47.25
2832.50,47.37
2832.00,47.49
2831.50,47.60
2831.00,47.72
2830.50,47.82
2830.00,47.92
2829.50,48.01
2829.00,48.10
2828.50,48.18
2828.00,48.24
2827.50,48.30
2827.00,48.35
2826.50,48.39
2826.00,48.42
2825.50,48.44
2825.00,48.45
2824.50,48.45
2824.00,48.44
2823.50,48.43
2823.00,48.40
2822.50,48.37
2822.00,48.33
2821.50,48.29
2821.00,48.23
2820.50,48.17
2820.00,48.11
2819.50,48.04
2819.00,47.98
2818.50,47.91
2818.00,47.84
2817.50,47.77
2817.00,47.70
2816.50,47.63
2816.00,47.57
2815.50,47.51
2815.00,47.45
2814.50,47.40
2814.00,47.35
2813.50,47.31
2813.00,47.28
2812.50,47.25
2812.00,47.23
2811.50,47.21
2811.00,47.20
2810.50,47.20
2810.00,47.20
2809.50,47.21
2809.00,47.23
2808.50,47.25
2808.00,47.28
2807.50,47.31
2807.00,47.35
2806.50,47.38
2806.00,47.42
2805.50,47.46
2805.00,47.50
2804.50,47.54
2804.00,47.59
2803.50,47.64
2803.00,47.68
2802.50,47.73
2802.00,47.78
2801.50,47.83
2801.00,47.89
2800.50,47.94
2800.00,48.00
2799.50,48.06
2799.00,48.13
2798.50,48.21
2798.00,48.29
2797.50,48.39
2797.00,48.50
2796.50,48.61
2796.00,48.75
2795.50,48.89
2795.00,49.06
2794.50,49.25
2794.00,49.46
2793.50,49.69
2793.00,49.94
2792.50,50.22
2792.00,50.52
2791.50,50.85
2791.00,51.21
2790.50,51.60
2790.00,52.02
2789.50,52.47
2789.00,52.94
2788.50,53.44
2788.00,53.96
2787.50,54.49
2787.00,55.05
2786.50,55.61
2786.00,56.18
2785.50,56.75
2785.00,57.33
2784.50,57.91
2784.00,58.49
2783.50,59.06
2783.00,59.63
2782.50,60.18
2782.00,60.73
2781.50,61.27
2781.00,61.80
2780.50,62.31
2780.00,62.81
2779.50,63.30
2779.00,63.78
2778.50,64.24
2778.00,64.69
2777.50,65.12
2777.00,65.55
2776.50,65.96
2776.00,66.36
2775.50,66.74
2775.00,67.12
2774.50,67.49
2774.00,67.85
2773.50,68.20
2773.00,68.54
2772.50,68.87
2772.00,69.19
2771.50,69.50
2771.00,69.81
2770.50,70.10
2770.00,70.39
2769.50,70.66
2769.00,70.93
2768.50,71.19
2768.00,71.44
2767.50,71.69
2767.00,71.93
2766.50,72.16
2766.00,72.39
2765.50,72.61
2765.00,72.82
2764.50,73.03
2764.00,73.23
2763.50,73.42
2763.00,73.61
2762.50,73.79
2762.00,73.97
2761.50,74.14
2761.00,74.31
2760.50,74.47
2760.00,74.62
2759.50,74.77
2759.00,74.92
2758.50,75.06
2758.00,75.20
2757.50,75.33
2757.00,75.46
2756.50,75.59
2756.00,75.71
2755.50,75.83
2755.00,75.94
2754.50,76.06
2754.00,76.17
2753.50,76.27
2753.00,76.38
2752.50,76.48
2752.00,76.58
2751.50,76.67
2751.00,76.77
2750.50,76.86
2750.00,76.95
2749.50,77.04
2749.00,77.13
2748.50,77.21
2748.00,77.30
2747.50,77.39
2747.00,77.47
2746.50,77.56
2746.00,77.64
2745.50,77.73
2745.00,77.81
2744.50,77.89
2744.00,77.97
2743.50,78.05
2743.00,78.13
2742.50,78.20
2742.00,78.28
2741.50,78.35
2741.00,78.42
2740.50,78.49
2740.00,78.56
2739.50,78.62
2739.00,78.69
2738.50,78.75
2738.00,78.81
2737.50,78.87
2737.00,78.93
2736.50,78.99
2736.00,79.04
2735.50,79.10
2735.00,79.15
2734.50,79.21
2734.00,79.26
2733.50,79.31
2733.00,79.36
2732.50,79.40
2732.00,79.45
2731.50,79.49
2731.00,79.53
2730.50,79.57
2730.00,79.61
2729.50,79.65
2729.00,79.69
2728.50,79.72
2728.00,79.76
2727.50,79.79
2727.00,79.82
2726.50,79.84
2726.00,79.86
2725.50,79.89
2725.00,79.91
2724.50,79.94
2724.00,79.96
2723.50,79.98
2723.00,79.99
2722.50,80.00
2722.00,80.01
2721.50,80.02
2721.00,80.02
2720.50,80.03
2720.00,80.04
2719.50,80.04
2719.00,80.04
2718.50,80.03
2718.00,80.03
2717.50,80.02
2717.00,80.01
2716.50,80.00
2716.00,79.98
2715.50,79.97
2715.00,79.95
2714.50,79.94
2714.00,79.92
2713.50,79.90
2713.00,79.89
2712.50,79.87
2712.00,79.86
2711.50,79.85
2711.00,79.84
2710.50,79.83
2710.00,79.82
2709.50,79.81
2709.00,79.80
2708.50,79.80
2708.00,79.80
2707.50,79.81
2707.00,79.82
2706.50,79.83
2706.00,79.85
2705.50,79.86
2705.00,79.89
2704.50,79.92
2704.00,79.94
2703.50,79.97
2703.00,80.00
2702.50,80.04
2702.00,80.07
2701.50,80.10
2701.00,80.14
2700.50,80.17
2700.00,80.20
2699.50,80.23
2699.00,80.26
2698.50,80.29
2698.00,80.32
2697.50,80.35
2697.00,80.37
2696.50,80.40
2696.00,80.42
2695.50,80.44
2695.00,80.45
2694.50,80.47
2694.00,80.48
2693.50,80.48
2693.00,80.49
2692.50,80.49
2692.00,80.49
2691.50,80.48
2691.00,80.47
2690.50,80.46
2690.00,80.44
2689.50,80.42
2689.00,80.40
2688.50,80.37
2688.00,80.34
2687.50,80.30
2687.00,80.25
2686.50,80.21
2686.00,80.15
2685.50,80.10
2685.00,80.04
2684.50,79.97
2684.00,79.90
2683.50,79.83
2683.00,79.75
2682.50,79.67
2682.00,79.58
2681.50,79.49
2681.00,79.39
2680.50,79.28
2680.00,79.17
2679.50,79.06
2679.00,78.95
2678.50,78.84
2678.00,78.72
2677.50,78.60
2677.00,78.47
2676.50,78.35
2676.00,78.21
2675.50,78.08
2675.00,77.95
2674.50,77.81
2674.00,77.67
2673.50,77.53
2673.00,77.38
2672.50,77.24
2672.00,77.10
2671.50,76.95
2671.00,76.80
2670.50,76.66
2670.00,76.52
2669.50,76.38
2669.00,76.24
2668.50,76.11
2668.00,75.98
2667.50,75.86
2667.00,75.75
2666.50,75.65
2666.00,75.55
2665.50,75.46
2665.00,75.39
2664.50,75.33
2664.00,75.28
2663.50,75.24
2663.00,75.21
2662.50,75.20
2662.00,75.20
2661.50,75.21
2661.00,75.24
2660.50,75.27
2660.00,75.32
2659.50,75.39
2659.00,75.46
2658.50,75.55
2658.00,75.65
2657.50,75.75
2657.00,75.87
2656.50,76.00
2656.00,76.14
2655.50,76.28
2655.00,76.44
2654.50,76.60
2654.00,76.77
2653.50,76.95
2653.00,77.13
2652.50,77.32
2652.00,77.52
2651.50,77.72
2651.00,77.92
2650.50,78.12
2650.00,78.33
2649.50,78.53
2649.00,78.73
2648.50,78.94
2648.00,79.14
2647.50,79.34
2647.00,79.54
2646.50,79.73
2646.00,79.92
2645.50,80.10
2645.00,80.29
2644.50,80.46
2644.00,80.63
2643.50,80.80
2643.00,80.96
2642.50,81.12
2642.00,81.27
2641.50,81.42
2641.00,81.56
2640.50,81.70
2640.00,81.83
2639.50,81.96
2639.00,82.08
2638.50,82.20
2638.00,82.32
2637.50,82.43
2637.00,82.54
2636.50,82.65
2636.00,82.75
2635.50,82.85
2635.00,82.94
2634.50,83.03
2634.00,83.11
2633.50,83.20
2633.00,83.28
2632.50,83.36
2632.00,83.43
2631.50,83.50
2631.00,83.57
2630.50,83.64
2630.00,83.70
2629.50,83.77
2629.00,83.83
2628.50,83.89
2628.00,83.94
2627.50,84.00
2627.00,84.05
2626.50,84.10
2626.00,84.15
2625.50,84.20
2625.00,84.25
2624.50,84.29
2624.00,84.34
2623.50,84.39
2623.00,84.43
2622.50,84.48
2622.00,84.52
2621.50,84.56
2621.00,84.60
2620.50,84.64
2620.00,84.68
2619.50,84.71
2619.00,84.75
2618.50,84.78
2618.00,84.81
2617.50,84.84
2617.00,84.87
2616.50,84.90
2616.00,84.93
2615.50,84.96
2615.00,84.99
2614.50,85.03
2614.00,85.06
2613.50,85.08
2613.00,85.11
2612.50,85.14
2612.00,85.16
2611.50,85.18
2611.00,85.20
2610.50,85.23
2610.00,85.25
2609.50,85.27
2609.00,85.30
2608.50,85.32
2608.00,85.35
2607.50,85.37
2607.00,85.39
2606.50,85.41
2606.00,85.43
2605.50,85.45
2605.00,85.46
2604.50,85.48
2604.00,85.50
2603.50,85.51
2603.00,85.53
2602.50,85.54
2602.00,85.56
2601.50,85.57
2601.00,85.59
2600.50,85.60
2600.00,85.62
2599.50,85.63
2599.00,85.64
2598.50,85.65
2598.00,85.66
2597.50,85.67
2597.00,85.68
2596.50,85.69
2596.00,85.70
2595.50,85.71
2595.00,85.72
2594.50,85.73
2594.00,85.73
2593.50,85.74
2593.00,85.75
2592.50,85.76
2592.00,85.77
2591.50,85.78
2591.00,85.79
2590.50,85.80
2590.00,85.81
2589.50,85.82
2589.00,85.83
2588.50,85.85
2588.00,85.86
2587.50,85.87
2587.00,85.88
2586.50,85.89
2586.00,85.90
2585.50,85.91
2585.00,85.92
2584.50,85.93
2584.00,85.94
2583.50,85.95
2583.00,85.96
2582.50,85.97
2582.00,85.98
2581.50,85.98
2581.00,85.99
2580.50,86.00
2580.00,86.01
2579.50,86.01
2579.00,86.02
2578.50,86.02
2578.00,86.03
2577.50,86.03
2577.00,86.04
2576.50,86.05
2576.00,86.05
2575.50,86.06
2575.00,86.06
2574.50,86.07
2574.00,86.08
2573.50,86.08
2573.00,86.09
2572.50,86.10
2572.00,86.10
2571.50,86.11
2571.00,86.11
2570.50,86.11
2570.00,86.12
2569.50,86.12
2569.00,86.12
2568.50,86.13
2568.00,86.13
2567.50,86.14
2567.00,86.14
2566.50,86.14
2566.00,86.14
2565.50,86.14
2565.00,86.14
2564.50,86.14
2564.00,86.14
2563.50,86.14
2563.00,86.14
2562.50,86.14
2562.00,86.14
2561.50,86.14
2561.00,86.14
2560.50,86.14
2560.00,86.14
2559.50,86.14
2559.00,86.14
2558.50,86.14
2558.00,86.14
2557.50,86.14
2557.00,86.13
2556.50,86.13
2556.00,86.13
2555.50,86.13
2555.00,86.12
2554.50,86.12
2554.00,86.12
2553.50,86.12
2553.00,86.11
2552.50,86.11
2552.00,86.11
2551.50,86.10
2551.00,86.10
2550.50,86.09
2550.00,86.09
2549.50,86.08
2549.00,86.08
2548.50,86.08
2548.00,86.07
2547.50,86.07
2547.00,86.06
2546.50,86.06
2546.00,86.06
2545.50,86.05
2545.00,86.04
2544.50,86.03
2544.00,86.02
2543.50,86.02
2543.00,86.01
2542.50,86.01
2542.00,86.00
2541.50,85.99
2541.00,85.98
2540.50,85.97
2540.00,85.96
2539.50,85.95
2539.00,85.94
2538.50,85.93
2538.00,85.92
2537.50,85.90
2537.00,85.89
2536.50,85.87
2536.00,85.86
2535.50,85.84
2535.00,85.82
2534.50,85.80
2534.00,85.78
2533.50,85.76
2533.00,85.73
2532.50,85.71
2532.00,85.68
2531.50,85.65
2531.00,85.62
2530.50,85.59
2530.00,85.56
2529.50,85.52
2529.00,85.49
2528.50,85.45
2528.00,85.42
2527.50,85.38
2527.00,85.34
2526.50,85.30
2526.00,85.25
2525.50,85.21
2525.00,85.16
2524.50,85.12
2524.00,85.07
2523.50,85.02
2523.00,84.97
2522.50,84.92
2522.00,84.86
2521.50,84.80
2521.00,84.74
2520.50,84.68
2520.00,84.62
2519.50,84.56
2519.00,84.50
2518.50,84.43
2518.00,84.35
2517.50,84.28
2517.00,84.19
2516.50,84.11
2516.00,84.02
2515.50,83.92
2515.00,83.82
2514.50,83.70
2514.00,83.58
2513.50,83.45
2513.00,83.31
2512.50,83.16
2512.00,82.99
2511.50,82.82
2511.00,82.63
2510.50,82.42
2510.00,82.19
2509.50,81.94
2509.00,81.67
2508.50,81.38
2508.00,81.06
2507.50,80.72
2507.00,80.35
2506.50,79.96
2506.00,79.54
2505.50,79.09
2505.00,78.63
2504.50,78.16
2504.00,77.68
2503.50,77.21
2503.00,76.75
2502.50,76.32
2502.00,75.93
2501.50,75.58
2501.00,75.30
2500.50,75.08
2500.00,74.94
2499.50,74.87
2499.00,74.88
2498.50,74.96
2498.00,75.10
2497.50,75.29
2497.00,75.53
2496.50,75.81
2496.00,76.12
2495.50,76.44
2495.00,76.78
2494.50,77.13
2494.00,77.48
2493.50,77.83
2493.00,78.17
2492.50,78.51
2492.00,78.85
2491.50,79.17
2491.00,79.50
2490.50,79.82
2490.00,80.12
2489.50,80.42
2489.00,80.72
2488.50,81.00
2488.00,81.28
2487.50,81.54
2487.00,81.79
2486.50,82.04
2486.00,82.26
2485.50,82.48
2485.00,82.68
2484.50,82.87
2484.00,83.05
2483.50,83.22
2483.00,83.38
2482.50,83.53
2482.00,83.67
2481.50,83.80
2481.00,83.92
2480.50,84.04
2480.00,84.14
2479.50,84.24
2479.00,84.34
2478.50,84.43
2478.00,84.52
2477.50,84.60
2477.00,84.67
2476.50,84.75
2476.00,84.82
2475.50,84.88
2475.00,84.94
2474.50,85.00
2474.00,85.06
2473.50,85.11
2473.00,85.16
2472.50,85.21
2472.00,85.25
2471.50,85.29
2471.00,85.33
2470.50,85.37
2470.00,85.41
2469.50,85.44
2469.00,85.47
2468.50,85.51
2468.00,85.54
2467.50,85.57
2467.00,85.59
2466.50,85.62
2466.00,85.65
2465.50,85.67
2465.00,85.69
2464.50,85.72
2464.00,85.74
2463.50,85.76
2463.00,85.78
2462.50,85.80
2462.00,85.82
2461.50,85.84
2461.00,85.85
2460.50,85.87
2460.00,85.89
2459.50,85.91
2459.00,85.93
2458.50,85.94
2458.00,85.96
2457.50,85.97
2457.00,85.98
2456.50,86.00
2456.00,86.01
2455.50,86.03
2455.00,86.04
2454.50,86.06
2454.00,86.07
2453.50,86.08
2453.00,86.09
2452.50,86.10
2452.00,86.12
2451.50,86.13
2451.00,86.14
2450.50,86.15
2450.00,86.16
2449.50,86.17
2449.00,86.18
2448.50,86.19
2448.00,86.20
2447.50,86.20
2447.00,86.21
2446.50,86.22
2446.00,86.22
2445.50,86.23
2445.00,86.24
2444.50,86.25
2444.00,86.25
2443.50,86.26
2443.00,86.26
2442.50,86.27
2442.00,86.27
2441.50,86.27
2441.00,86.27
2440.50,86.28
2440.00,86.28
2439.50,86.28
2439.00,86.29
2438.50,86.29
2438.00,86.29
2437.50,86.29
2437.00,86.29
2436.50,86.30
2436.00,86.30
2435.50,86.30
2435.00,86.31
2434.50,86.31
2434.00,86.31
2433.50,86.31
2433.00,86.31
2432.50,86.32
2432.00,86.32
2431.50,86.32
2431.00,86.32
2430.50,86.32
2430.00,86.32
2429.50,86.32
2429.00,86.32
2428.50,86.33
2428.00,86.33
2427.50,86.33
2427.00,86.32
2426.50,86.32
2426.00,86.32
2425.50,86.32
2425.00,86.32
2424.50,86.32
2424.00,86.32
2423.50,86.32
2423.00,86.32
2422.50,86.32
2422.00,86.32
2421.50,86.32
2421.00,86.32
2420.50,86.32
2420.00,86.32
2419.50,86.32
2419.00,86.32
2418.50,86.32
2418.00,86.31
2417.50,86.31
2417.00,86.31
2416.50,86.30
2416.00,86.30
2415.50,86.30
2415.00,86.29
2414.50,86.29
2414.00,86.29
2413.50,86.28
2413.00,86.28
2412.50,86.28
2412.00,86.27
2411.50,86.27
2411.00,86.26
2410.50,86.26
2410.00,86.26
2409.50,86.26
2409.00,86.25
2408.50,86.25
2408.00,86.25
2407.50,86.24
2407.00,86.24
2406.50,86.24
2406.00,86.24
2405.50,86.23
2405.00,86.23
2404.50,86.23
2404.00,86.23
2403.50,86.22
2403.00,86.22
2402.50,86.22
2402.00,86.22
2401.50,86.21
2401.00,86.21
2400.50,86.21
2400.00,86.21
2399.50,86.21
2399.00,86.20
2398.50,86.20
2398.00,86.19
2397.50,86.19
2397.00,86.18
2396.50,86.18
2396.00,86.18
2395.50,86.18
2395.00,86.17
2394.50,86.17
2394.00,86.16
2393.50,86.16
2393.00,86.15
2392.50,86.15
2392.00,86.15
2391.50,86.14
2391.00,86.14
2390.50,86.13
2390.00,86.13
2389.50,86.12
2389.00,86.11
2388.50,86.11
2388.00,86.10
2387.50,86.10
2387.00,86.09
2386.50,86.08
2386.00,86.07
2385.50,86.07
2385.00,86.06
2384.50,86.05
2384.00,86.04
2383.50,86.03
2383.00,86.02
2382.50,86.01
2382.00,86.00
2381.50,85.99
2381.00,85.97
2380.50,85.96
2380.00,85.95
2379.50,85.94
2379.00,85.93
2378.50,85.92
2378.00,85.92
2377.50,85.91
2377.00,85.90
2376.50,85.89
2376.00,85.89
2375.50,85.87
2375.00,85.86
2374.50,85.86
2374.00,85.85
2373.50,85.84
2373.00,85.83
2372.50,85.83
2372.00,85.83
2371.50,85.82
2371.00,85.81
2370.50,85.81
2370.00,85.81
2369.50,85.80
2369.00,85.79
2368.50,85.79
2368.00,85.78
2367.50,85.76
2367.00,85.75
2366.50,85.75
2366.00,85.74
2365.50,85.73
2365.00,85.71
2364.50,85.71
2364.00,85.71
2363.50,85.70
2363.00,85.68
2362.50,85.68
2362.00,85.68
2361.50,85.66
2361.00,85.65
2360.50,85.64
2360.00,85.63
2359.50,85.61
2359.00,85.60
2358.50,85.60
2358.00,85.59
2357.50,85.57
2357.00,85.55
2356.50,85.55
2356.00,85.54
2355.50,85.53
2355.00,85.52
2354.50,85.52
2354.00,85.51
2353.50,85.48
2353.00,85.46
2352.50,85.44
2352.00,85.43
2351.50,85.41
2351.00,85.39
2350.50,85.39
2350.00,85.39
2349.50,85.40
2349.00,85.39
2348.50,85.38
2348.00,85.37
2347.50,85.35
2347.00,85.34
2346.50,85.34
2346.00,85.33
2345.50,85.32
2345.00,85.31
2344.50,85.30
2344.00,85.29
2343.50,85.27
2343.00,85.26
2342.50,85.25
2342.00,85.24
2341.50,85.22
2341.00,85.20
2340.50,85.18
2340.00,85.17
2339.50,85.15
2339.00,85.12
2338.50,85.12
2338.00,85.12
2337.50,85.10
2337.00,85.09
2336.50,85.09
2336.00,85.09
2335.50,85.08
2335.00,85.08
2334.50,85.08
2334.00,85.08
2333.50,85.07
2333.00,85.05
2332.50,85.05
2332.00,85.03
2331.50,85.01
2331.00,84.99
2330.50,84.98
2330.00,84.98
2329.50,84.95
2329.00,84.93
2328.50,84.93
2328.00,84.91
2327.50,84.89
2327.00,84.87
2326.50,84.86
2326.00,84.85
2325.50,84.82
2325.00,84.80
2324.50,84.79
2324.00,84.77
2323.50,84.74
2323.00,84.73
2322.50,84.72
2322.00,84.70
2321.50,84.67
2321.00,84.65
2320.50,84.64
2320.00,84.62
2319.50,84.58
2319.00,84.57
2318.50,84.56
2318.00,84.54
2317.50,84.51
2317.00,84.50
2316.50,84.49
2316.00,84.46
2315.50,84.43
2315.00,84.41
2314.50,84.39
2314.00,84.36
2313.50,84.32
2313.00,84.30
2312.50,84.29
2312.00,84.26
2311.50,84.23
2311.00,84.21
2310.50,84.20
2310.00,84.17
2309.50,84.14
2309.00,84.11
2308.50,84.10
2308.00,84.07
2307.50,84.04
2307.00,84.01
2306.50,83.98
2306.00,83.96
2305.50,83.93
2305.00,83.90
2304.50,83.88
2304.00,83.85
2303.50,83.82
2303.00,83.79
2302.50,83.76
2302.00,83.74
2301.50,83.71
2301.00,83.67
2300.50,83.64
2300.00,83.61
2299.50,83.58
2299.00,83.54
2298.50,83.51
2298.00,83.48
2297.50,83.44
2297.00,83.41
2296.50,83.37
2296.00,83.33
2295.50,83.30
2295.00,83.26
2294.50,83.22
2294.00,83.18
2293.50,83.14
2293.00,83.10
2292.50,83.06
2292.00,83.01
2291.50,82.96
2291.00,82.92
2290.50,82.87
2290.00,82.83
2289.50,82.78
2289.00,82.74
2288.50,82.70
2288.00,82.65
2287.50,82.60
2287.00,82.55
2286.50,82.50
2286.00,82.45
2285.50,82.40
2285.00,82.34
2284.50,82.29
2284.00,82.24
2283.50,82.19
2283.00,82.14
2282.50,82.09
2282.00,82.04
2281.50,81.99
2281.00,81.93
2280.50,81.88
2280.00,81.83
2279.50,81.78
2279.00,81.73
2278.50,81.69
2278.00,81.64
2277.50,81.60
2277.00,81.56
2276.50,81.52
2276.00,81.48
2275.50,81.44
2275.00,81.41
2274.50,81.38
2274.00,81.35
2273.50,81.32
2273.00,81.29
2272.50,81.26
2272.00,81.24
2271.50,81.21
2271.00,81.19
2270.50,81.17
2270.00,81.16
2269.50,81.14
2269.00,81.12
2268.50,81.11
2268.00,81.10
2267.50,81.08
2267.00,81.06
2266.50,81.04
2266.00,81.02
2265.50,81.00
2265.00,80.98
2264.50,80.97
2264.00,80.95
2263.50,80.92
2263.00,80.90
2262.50,80.88
2262.00,80.86
2261.50,80.83
2261.00,80.81
2260.50,80.78
2260.00,80.76
2259.50,80.73
2259.00,80.70
2258.50,80.68
2258.00,80.65
2257.50,80.62
2257.00,80.58
2256.50,80.55
2256.00,80.51
2255.50,80.48
2255.00,80.44
2254.50,80.40
2254.00,80.37
2253.50,80.33
2253.00,80.28
2252.50,80.24
2252.00,80.20
2251.50,80.15
2251.00,80.10
2250.50,80.06
2250.00,80.01
2249.50,79.96
2249.00,79.91
2248.50,79.86
2248.00,79.81
2247.50,79.75
2247.00,79.69
2246.50,79.63
2246.00,79.58
2245.50,79.52
2245.00,79.45
2244.50,79.39
2244.00,79.33
2243.50,79.27
2243.00,79.20
2242.50,79.13
2242.00,79.07
2241.50,78.99
2241.00,78.92
2240.50,78.85
2240.00,78.77
2239.50,78.69
2239.00,78.61
2238.50,78.53
2238.00,78.45
2237.50,78.36
2237.00,78.27
2236.50,78.18
2236.00,78.09
2235.50,77.99
2235.00,77.89
2234.50,77.79
2234.00,77.69
2233.50,77.58
2233.00,77.47
2232.50,77.36
2232.00,77.25
2231.50,77.13
2231.00,77.01
2230.50,76.88
2230.00,76.76
2229.50,76.63
2229.00,76.49
2228.50,76.36
2228.00,76.22
2227.50,76.08
2227.00,75.93
2226.50,75.79
2226.00,75.64
2225.50,75.49
2225.00,75.33
2224.50,75.17
2224.00,75.02
2223.50,74.85
2223.00,74.68
2222.50,74.52
2222.00,74.35
2221.50,74.18
2221.00,74.00
2220.50,73.82
2220.00,73.65
2219.50,73.46
2219.00,73.27
2218.50,73.08
2218.00,72.88
2217.50,72.68
2217.00,72.47
2216.50,72.27
2216.00,72.06
2215.50,71.84
2215.00,71.61
2214.50,71.38
2214.00,71.15
2213.50,70.90
2213.00,70.65
2212.50,70.40
2212.00,70.14
2211.50,69.87
2211.00,69.59
2210.50,69.30
2210.00,69.02
2209.50,68.71
2209.00,68.40
2208.50,68.08
2208.00,67.76
2207.50,67.43
2207.00,67.08
2206.50,66.73
2206.00,66.37
2205.50,65.99
2205.00,65.60
2204.50,65.21
2204.00,64.81
2203.50,64.40
2203.00,63.97
2202.50,63.53
2202.00,63.08
2201.50,62.62
2201.00,62.14
2200.50,61.66
2200.00,61.16
2199.50,60.65
2199.00,60.12
2198.50,59.59
2198.00,59.04
2197.50,58.48
2197.00,57.89
2196.50,57.29
2196.00,56.69
2195.50,56.07
2195.00,55.43
2194.50,54.79
2194.00,54.13
2193.50,53.45
2193.00,52.75
2192.50,52.04
2192.00,51.33
2191.50,50.59
2191.00,49.84
2190.50,49.08
2190.00,48.31
2189.50,47.53
2189.00,46.72
2188.50,45.92
2188.00,45.10
2187.50,44.28
2187.00,43.43
2186.50,42.58
2186.00,41.73
2185.50,40.88
2185.00,40.01
2184.50,39.14
2184.00,38.27
2183.50,37.40
2183.00,36.51
2182.50,35.64
2182.00,34.78
2181.50,33.91
2181.00,33.04
2180.50,32.19
2180.00,31.35
2179.50,30.52
2179.00,29.69
2178.50,28.89
2178.00,28.12
2177.50,27.35
2177.00,26.59
2176.50,25.86
2176.00,25.16
2175.50,24.48
2175.00,23.81
2174.50,23.17
2174.00,22.58
2173.50,21.99
2173.00,21.42
2172.50,20.89
2172.00,20.39
2171.50,19.91
2171.00,19.45
2170.50,19.02
2170.00,18.62
2169.50,18.25
2169.00,17.89
2168.50,17.56
2168.00,17.28
2167.50,17.01
2167.00,16.76
2166.50,16.53
2166.00,16.35
2165.50,16.19
2165.00,16.04
2164.50,15.92
2164.00,15.84
2163.50,15.78
2163.00,15.73
2162.50,15.72
2162.00,15.74
2161.50,15.78
2161.00,15.84
2160.50,15.93
2160.00,16.05
2159.50,16.20
2159.00,16.36
2158.50,16.55
2158.00,16.78
2157.50,17.03
2157.00,17.29
2156.50,17.59
2156.00,17.92
2155.50,18.28
2155.00,18.65
2154.50,19.05
2154.00,19.49
2153.50,19.96
2153.00,20.43
2152.50,20.94
2152.00,21.49
2151.50,22.06
2151.00,22.65
2150.50,23.26
2150.00,23.91
2149.50,24.58
2149.00,25.26
2148.50,25.97
2148.00,26.71
2147.50,27.47
2147.00,28.24
2146.50,29.03
2146.00,29.84
2145.50,30.67
2145.00,31.50
2144.50,32.35
2144.00,33.22
2143.50,34.09
2143.00,34.96
2142.50,35.84
2142.00,36.73
2141.50,37.62
2141.00,38.50
2140.50,39.39
2140.00,40.29
2139.50,41.18
2139.00,42.06
2138.50,42.93
2138.00,43.80
2137.50,44.66
2137.00,45.51
2136.50,46.35
2136.00,47.19
2135.50,48.01
2135.00,48.80
2134.50,49.59
2134.00,50.36
2133.50,51.12
2133.00,51.85
2132.50,52.56
2132.00,53.27
2131.50,53.95
2131.00,54.60
2130.50,55.25
2130.00,55.87
2129.50,56.47
2129.00,57.05
2128.50,57.61
2128.00,58.15
2127.50,58.67
2127.00,59.17
2126.50,59.66
2126.00,60.13
2125.50,60.59
2125.00,61.02
2124.50,61.44
2124.00,61.84
2123.50,62.24
2123.00,62.61
2122.50,62.97
2122.00,63.33
2121.50,63.67
2121.00,63.99
2120.50,64.30
2120.00,64.61
2119.50,64.90
2119.00,65.18
2118.50,65.44
2118.00,65.70
2117.50,65.95
2117.00,66.18
2116.50,66.41
2116.00,66.63
2115.50,66.84
2115.00,67.04
2114.50,67.24
2114.00,67.42
2113.50,67.60
2113.00,67.76
2112.50,67.93
2112.00,68.09
2111.50,68.24
2111.00,68.38
2110.50,68.53
2110.00,68.67
2109.50,68.80
2109.00,68.92
2108.50,69.05
2108.00,69.17
2107.50,69.29
2107.00,69.41
2106.50,69.52
2106.00,69.63
2105.50,69.74
2105.00,69.85
2104.50,69.95
2104.00,70.06
2103.50,70.16
2103.00,70.25
2102.50,70.35
2102.00,70.44
2101.50,70.54
2101.00,70.62
2100.50,70.71
2100.00,70.79
2099.50,70.87
2099.00,70.95
2098.50,71.02
2098.00,71.10
2097.50,71.17
2097.00,71.24
2096.50,71.31
2096.00,71.37
2095.50,71.43
2095.00,71.48
2094.50,71.54
2094.00,71.58
2093.50,71.63
2093.00,71.66
2092.50,71.70
2092.00,71.73
2091.50,71.75
2091.00,71.77
2090.50,71.79
2090.00,71.81
2089.50,71.81
2089.00,71.82
2088.50,71.82
2088.00,71.82
2087.50,71.82
2087.00,71.81
2086.50,71.80
2086.00,71.79
2085.50,71.78
2085.00,71.76
2084.50,71.75
2084.00,71.74
2083.50,71.72
2083.00,71.70
2082.50,71.69
2082.00,71.67
2081.50,71.65
2081.00,71.63
2080.50,71.61
2080.00,71.59
2079.50,71.57
2079.00,71.54
2078.50,71.52
2078.00,71.49
2077.50,71.45
2077.00,71.42
2076.50,71.38
2076.00,71.34
2075.50,71.30
2075.00,71.25
2074.50,71.21
2074.00,71.16
2073.50,71.11
2073.00,71.05
2072.50,70.99
2072.00,70.93
2071.50,70.86
2071.00,70.79
2070.50,70.72
2070.00,70.65
2069.50,70.57
2069.00,70.48
2068.50,70.39
2068.00,70.30
2067.50,70.21
2067.00,70.13
2066.50,70.05
2066.00,69.98
2065.50,69.89
2065.00,69.80
2064.50,69.70
2064.00,69.61
2063.50,69.50
2063.00,69.40
2062.50,69.30
2062.00,69.20
2061.50,69.09
2061.00,68.99
2060.50,68.88
2060.00,68.78
2059.50,68.67
2059.00,68.56
2058.50,68.46
2058.00,68.36
2057.50,68.26
2057.00,68.16
2056.50,68.06
2056.00,67.97
2055.50,67.89
2055.00,67.81
2054.50,67.74
2054.00,67.68
2053.50,67.63
2053.00,67.59
2052.50,67.57
2052.00,67.56
2051.50,67.57
2051.00,67.59
2050.50,67.64
2050.00,67.70
2049.50,67.79
2049.00,67.90
2048.50,68.04
2048.00,68.20
2047.50,68.38
2047.00,68.58
2046.50,68.81
2046.00,69.06
2045.50,69.32
2045.00,69.59
2044.50,69.88
2044.00,70.19
2043.50,70.50
2043.00,70.80
2042.50,71.12
2042.00,71.44
2041.50,71.77
2041.00,72.09
2040.50,72.39
2040.00,72.67
2039.50,72.95
2039.00,73.21
2038.50,73.46
2038.00,73.71
2037.50,73.93
2037.00,74.14
2036.50,74.33
2036.00,74.51
2035.50,74.66
2035.00,74.81
2034.50,74.94
2034.00,75.05
2033.50,75.14
2033.00,75.22
2032.50,75.29
2032.00,75.35
2031.50,75.39
2031.00,75.41
2030.50,75.43
2030.00,75.44
2029.50,75.43
2029.00,75.42
2028.50,75.39
2028.00,75.36
2027.50,75.31
2027.00,75.25
2026.50,75.19
2026.00,75.12
2025.50,75.04
2025.00,74.96
2024.50,74.87
2024.00,74.77
2023.50,74.67
2023.00,74.56
2022.50,74.45
2022.00,74.34
2021.50,74.22
2021.00,74.09
2020.50,73.97
2020.00,73.84
2019.50,73.70
2019.00,73.56
2018.50,73.42
2018.00,73.27
2017.50,73.11
2017.00,72.95
2016.50,72.78
2016.00,72.61
2015.50,72.45
2015.00,72.27
2014.50,72.10
2014.00,71.92
2013.50,71.74
2013.00,71.55
2012.50,71.37
2012.00,71.19
2011.50,71.02
2011.00,70.85
2010.50,70.69
2010.00,70.53
2009.50,70.39
2009.00,70.24
2008.50,70.11
2008.00,69.99
2007.50,69.88
2007.00,69.77
2006.50,69.67
2006.00,69.58
2005.50,69.49
2005.00,69.40
2004.50,69.31
2004.00,69.22
2003.50,69.13
2003.00,69.03
2002.50,68.93
2002.00,68.84
2001.50,68.75
2001.00,68.65
2000.50,68.57
2000.00,68.49
1999.50,68.42
1999.00,68.36
1998.50,68.31
1998.00,68.26
1997.50,68.21
1997.00,68.16
1996.50,68.12
1996.00,68.13
1995.50,68.17
1995.00,68.23
1994.50,68.29
1994.00,68.34
1993.50,68.37
1993.00,68.39
1992.50,68.41
1992.00,68.42
1991.50,68.41
1991.00,68.38
1990.50,68.34
1990.00,68.30
1989.50,68.24
1989.00,68.17
1988.50,68.09
1988.00,68.00
1987.50,67.89
1987.00,67.78
1986.50,67.66
1986.00,67.53
1985.50,67.38
1985.00,67.23
1984.50,67.08
1984.00,66.91
1983.50,66.74
1983.00,66.55
1982.50,66.35
1982.00,66.15
1981.50,65.94
1981.00,65.71
1980.50,65.48
1980.00,65.25
1979.50,65.00
1979.00,64.74
1978.50,64.47
1978.00,64.20
1977.50,63.91
1977.00,63.62
1976.50,63.31
1976.00,63.01
1975.50,62.69
1975.00,62.36
1974.50,62.03
1974.00,61.69
1973.50,61.34
1973.00,60.99
1972.50,60.63
1972.00,60.28
1971.50,59.92
1971.00,59.55
1970.50,59.19
1970.00,58.83
1969.50,58.47
1969.00,58.13
1968.50,57.78
1968.00,57.44
1967.50,57.08
1967.00,56.73
1966.50,56.40
1966.00,56.10
1965.50,55.80
1965.00,55.52
1964.50,55.24
1964.00,54.97
1963.50,54.71
1963.00,54.45
1962.50,54.20
1962.00,53.95
1961.50,53.71
1961.00,53.47
1960.50,53.23
1960.00,53.00
1959.50,52.77
1959.00,52.53
1958.50,52.29
1958.00,52.05
1957.50,51.81
1957.00,51.56
1956.50,51.30
1956.00,51.05
1955.50,50.78
1955.00,50.50
1954.50,50.22
1954.00,49.93
1953.50,49.65
1953.00,49.35
1952.50,49.05
1952.00,48.76
1951.50,48.46
1951.00,48.15
1950.50,47.85
1950.00,47.56
1949.50,47.27
1949.00,46.98
1948.50,46.71
1948.00,46.46
1947.50,46.23
1947.00,46.02
1946.50,45.82
1946.00,45.66
1945.50,45.53
1945.00,45.44
1944.50,45.37
1944.00,45.36
1943.50,45.38
1943.00,45.47
1942.50,45.63
1942.00,45.83
1941.50,46.05
1941.00,46.28
1940.50,46.57
1940.00,46.91
1939.50,47.29
1939.00,47.70
1938.50,48.13
1938.00,48.59
1937.50,49.07
1937.00,49.55
1936.50,50.04
1936.00,50.53
1935.50,51.01
1935.00,51.47
1934.50,51.92
1934.00,52.36
1933.50,52.78
1933.00,53.19
1932.50,53.57
1932.00,53.92
1931.50,54.25
1931.00,54.56
1930.50,54.85
1930.00,55.13
1929.50,55.37
1929.00,55.60
1928.50,55.82
1928.00,56.02
1927.50,56.21
1927.00,56.38
1926.50,56.55
1926.00,56.70
1925.50,56.84
1925.00,56.97
1924.50,57.09
1924.00,57.21
1923.50,57.35
1923.00,57.49
1922.50,57.63
1922.00,57.74
1921.50,57.84
1921.00,57.93
1920.50,58.03
1920.00,58.13
1919.50,58.23
1919.00,58.34
1918.50,58.51
1918.00,58.71
1917.50,58.89
1917.00,59.05
1916.50,59.21
1916.00,59.39
1915.50,59.59
1915.00,59.80
1914.50,60.03
1914.00,60.27
1913.50,60.51
1913.00,60.75
1912.50,61.00
1912.00,61.23
1911.50,61.45
1911.00,61.67
1910.50,61.91
1910.00,62.14
1909.50,62.36
1909.00,62.54
1908.50,62.73
1908.00,62.92
1907.50,63.10
1907.00,63.27
1906.50,63.43
1906.00,63.59
1905.50,63.74
1905.00,63.88
1904.50,64.02
1904.00,64.15
1903.50,64.27
1903.00,64.37
1902.50,64.48
1902.00,64.57
1901.50,64.65
1901.00,64.73
1900.50,64.80
1900.00,64.86
1899.50,64.90
1899.00,64.94
1898.50,64.98
1898.00,65.01
1897.50,65.04
1897.00,65.05
1896.50,65.07
1896.00,65.09
1895.50,65.10
1895.00,65.10
1894.50,65.11
1894.00,65.11
1893.50,65.10
1893.00,65.08
1892.50,65.07
1892.00,65.06
1891.50,65.05
1891.00,65.03
1890.50,65.02
1890.00,65.01
1889.50,65.00
1889.00,64.99
1888.50,64.98
1888.00,64.96
1887.50,64.94
1887.00,64.92
1886.50,64.90
1886.00,64.89
1885.50,64.87
1885.00,64.86
1884.50,64.84
1884.00,64.83
1883.50,64.80
1883.00,64.78
1882.50,64.77
1882.00,64.75
1881.50,64.73
1881.00,64.71
1880.50,64.70
1880.00,64.68
1879.50,64.66
1879.00,64.63
1878.50,64.62
1878.00,64.60
1877.50,64.58
1877.00,64.55
1876.50,64.53
1876.00,64.52
1875.50,64.50
1875.00,64.47
1874.50,64.46
1874.00,64.44
1873.50,64.42
1873.00,64.40
1872.50,64.38
1872.00,64.37
1871.50,64.35
1871.00,64.33
1870.50,64.32
1870.00,64.33
1869.50,64.33
1869.00,64.34
1868.50,64.34
1868.00,64.33
1867.50,64.31
1867.00,64.30
1866.50,64.30
1866.00,64.30
1865.50,64.29
1865.00,64.28
1864.50,64.28
1864.00,64.29
1863.50,64.28
1863.00,64.28
1862.50,64.28
1862.00,64.28
1861.50,64.27
1861.00,64.26
1860.50,64.24
1860.00,64.23
1859.50,64.21
1859.00,64.18
1858.50,64.16
1858.00,64.13
1857.50,64.10
1857.00,64.07
1856.50,64.04
1856.00,64.01
1855.50,63.98
1855.00,63.95
1854.50,63.93
1854.00,63.91
1853.50,63.89
1853.00,63.87
1852.50,63.87
1852.00,63.87
1851.50,63.87
1851.00,63.87
1850.50,63.89
1850.00,63.91
1849.50,63.92
1849.00,63.94
1848.50,63.98
1848.00,64.02
1847.50,64.06
1847.00,64.09
1846.50,64.12
1846.00,64.15
1845.50,64.17
1845.00,64.21
1844.50,64.29
1844.00,64.35
1843.50,64.37
1843.00,64.36
1842.50,64.35
1842.00,64.36
1841.50,64.36
1841.00,64.36
1840.50,64.37
1840.00,64.37
1839.50,64.36
1839.00,64.35
1838.50,64.34
1838.00,64.34
1837.50,64.32
1837.00,64.30
1836.50,64.28
1836.00,64.25
1835.50,64.22
1835.00,64.18
1834.50,64.15
1834.00,64.12
1833.50,64.07
1833.00,64.03
1832.50,63.99
1832.00,63.94
1831.50,63.89
1831.00,63.84
1830.50,63.80
1830.00,63.76
1829.50,63.69
1829.00,63.62
1828.50,63.56
1828.00,63.50
1827.50,63.43
1827.00,63.36
1826.50,63.28
1826.00,63.21
1825.50,63.12
1825.00,63.04
1824.50,62.97
1824.00,62.90
1823.50,62.82
1823.00,62.73
1822.50,62.64
1822.00,62.55
1821.50,62.46
1821.00,62.36
1820.50,62.27
1820.00,62.18
1819.50,62.08
1819.00,61.97
1818.50,61.87
1818.00,61.77
1817.50,61.65
1817.00,61.54
1816.50,61.44
1816.00,61.33
1815.50,61.22
1815.00,61.10
1814.50,60.99
1814.00,60.88
1813.50,60.76
1813.00,60.64
1812.50,60.52
1812.00,60.40
1811.50,60.27
1811.00,60.13
1810.50,59.99
1810.00,59.85
1809.50,59.72
1809.00,59.59
1808.50,59.46
1808.00,59.32
1807.50,59.17
1807.00,59.02
1806.50,58.89
1806.00,58.75
1805.50,58.61
1805.00,58.46
1804.50,58.31
1804.00,58.18
1803.50,58.03
1803.00,57.87
1802.50,57.72
1802.00,57.57
1801.50,57.44
1801.00,57.31
1800.50,57.18
1800.00,57.03
1799.50,56.87
1799.00,56.72
1798.50,56.59
1798.00,56.48
1797.50,56.35
1797.00,56.22
1796.50,56.09
1796.00,55.96
1795.50,55.81
1795.00,55.68
1794.50,55.58
1794.00,55.48
1793.50,55.37
1793.00,55.23
1792.50,55.09
1792.00,54.97
1791.50,54.84
1791.00,54.72
1790.50,54.62
1790.00,54.52
1789.50,54.43
1789.00,54.33
1788.50,54.24
1788.00,54.15
1787.50,54.05
1787.00,53.96
1786.50,53.89
1786.00,53.81
1785.50,53.72
1785.00,53.64
1784.50,53.58
1784.00,53.51
1783.50,53.45
1783.00,53.39
1782.50,53.33
1782.00,53.28
1781.50,53.22
1781.00,53.17
1780.50,53.14
1780.00,53.10
1779.50,53.06
1779.00,53.03
1778.50,53.00
1778.00,52.97
1777.50,52.94
1777.00,52.92
1776.50,52.90
1776.00,52.89
1775.50,52.88
1775.00,52.87
1774.50,52.87
1774.00,52.87
1773.50,52.87
1773.00,52.89
1772.50,52.94
1772.00,52.95
1771.50,52.94
1771.00,52.93
1770.50,52.93
1770.00,52.92
1769.50,52.91
1769.00,52.91
1768.50,52.94
1768.00,52.98
1767.50,53.02
1767.00,53.04
1766.50,53.05
1766.00,53.07
1765.50,53.09
1765.00,53.11
1764.50,53.14
1764.00,53.16
1763.50,53.17
1763.00,53.19
1762.50,53.23
1762.00,53.29
1761.50,53.33
1761.00,53.36
1760.50,53.38
1760.00,53.39
1759.50,53.40
1759.00,53.42
1758.50,53.44
1758.00,53.46
1757.50,53.48
1757.00,53.52
1756.50,53.56
1756.00,53.58
1755.50,53.59
1755.00,53.60
1754.50,53.62
1754.00,53.63
1753.50,53.64
1753.00,53.64
1752.50,53.65
1752.00,53.67
1751.50,53.69
1751.00,53.71
1750.50,53.73
1750.00,53.72
1749.50,53.71
1749.00,53.70
1748.50,53.71
1748.00,53.71
1747.50,53.69
1747.00,53.68
1746.50,53.67
1746.00,53.65
1745.50,53.62
1745.00,53.59
1744.50,53.56
1744.00,53.54
1743.50,53.50
1743.00,53.46
1742.50,53.44
1742.00,53.41
1741.50,53.37
1741.00,53.34
1740.50,53.30
1740.00,53.26
1739.50,53.19
1739.00,53.12
1738.50,53.07
1738.00,53.01
1737.50,52.95
1737.00,52.88
1736.50,52.83
1736.00,52.78
1735.50,52.73
1735.00,52.68
1734.50,52.62
1734.00,52.52
1733.50,52.39
1733.00,52.31
1732.50,52.24
1732.00,52.18
1731.50,52.11
1731.00,52.03
1730.50,51.96
1730.00,51.87
1729.50,51.78
1729.00,51.71
1728.50,51.65
1728.00,51.59
1727.50,51.52
1727.00,51.45
1726.50,51.39
1726.00,51.33
1725.50,51.27
1725.00,51.20
1724.50,51.15
1724.00,51.10
1723.50,51.05
1723.00,50.99
1722.50,50.96
1722.00,50.92
1721.50,50.87
1721.00,50.83
1720.50,50.79
1720.00,50.76
1719.50,50.72
1719.00,50.69
1718.50,50.69
1718.00,50.68
1717.50,50.63
1717.00,50.59
1716.50,50.57
1716.00,50.55
1715.50,50.52
1715.00,50.48
1714.50,50.45
1714.00,50.42
1713.50,50.39
1713.00,50.37
1712.50,50.35
1712.00,50.32
1711.50,50.29
1711.00,50.27
1710.50,50.25
1710.00,50.23
1709.50,50.20
1709.00,50.18
1708.50,50.16
1708.00,50.14
1707.50,50.12
1707.00,50.09
1706.50,50.07
1706.00,50.03
1705.50,49.99
1705.00,49.95
1704.50,49.91
1704.00,49.88
1703.50,49.85
1703.00,49.81
1702.50,49.79
1702.00,49.77
1701.50,49.73
1701.00,49.67
1700.50,49.63
1700.00,49.57
1699.50,49.52
1699.00,49.48
1698.50,49.44
1698.00,49.40
1697.50,49.35
1697.00,49.31
1696.50,49.26
1696.00,49.17
1695.50,49.05
1695.00,48.98
1694.50,48.93
1694.00,48.87
1693.50,48.79
1693.00,48.71
1692.50,48.64
1692.00,48.57
1691.50,48.49
1691.00,48.41
1690.50,48.32
1690.00,48.23
1689.50,48.13
1689.00,48.04
1688.50,47.94
1688.00,47.84
1687.50,47.74
1687.00,47.67
1686.50,47.61
1686.00,47.56
1685.50,47.48
1685.00,47.37
1684.50,47.23
1684.00,47.05
1683.50,46.92
1683.00,46.88
1682.50,46.85
1682.00,46.81
1681.50,46.76
1681.00,46.70
1680.50,46.64
1680.00,46.57
1679.50,46.50
1679.00,46.45
1678.50,46.39
1678.00,46.34
1677.50,46.27
1677.00,46.22
1676.50,46.17
1676.00,46.10
1675.50,45.96
1675.00,45.81
1674.50,45.71
1674.00,45.63
1673.50,45.55
1673.00,45.47
1672.50,45.38
1672.00,45.27
1671.50,45.14
1671.00,45.04
1670.50,44.96
1670.00,44.87
1669.50,44.70
1669.00,44.50
1668.50,44.35
1668.00,44.25
1667.50,44.15
1667.00,44.04
1666.50,43.93
1666.00,43.82
1665.50,43.69
1665.00,43.57
1664.50,43.47
1664.00,43.38
1663.50,43.25
1663.00,43.07
1662.50,42.90
1662.00,42.76
1661.50,42.64
1661.00,42.53
1660.50,42.42
1660.00,42.31
1659.50,42.19
1659.00,42.07
1658.50,41.96
1658.00,41.84
1657.50,41.72
1657.00,41.60
1656.50,41.51
1656.00,41.42
1655.50,41.34
1655.00,41.27
1654.50,41.21
1654.00,41.17
1653.50,40.94
1653.00,40.53
1652.50,40.41
1652.00,40.38
1651.50,40.33
1651.00,40.26
1650.50,40.20
1650.00,40.13
1649.50,40.05
1649.00,39.97
1648.50,39.89
1648.00,39.80
1647.50,39.69
1647.00,39.59
1646.50,39.49
1646.00,39.37
1645.50,39.26
1645.00,39.18
1644.50,39.12
1644.00,39.06
1643.50,38.98
1643.00,38.90
1642.50,38.82
1642.00,38.75
1641.50,38.67
1641.00,38.59
1640.50,38.52
1640.00,38.45
1639.50,38.38
1639.00,38.31
1638.50,38.25
1638.00,38.18
1637.50,38.11
1637.00,38.03
1636.50,37.99
1636.00,37.92
1635.50,37.74
1635.00,37.57
1634.50,37.51
1634.00,37.46
1633.50,37.40
1633.00,37.32
1632.50,37.24
1632.00,37.16
1631.50,37.07
1631.00,36.98
1630.50,36.89
1630.00,36.81
1629.50,36.73
1629.00,36.65
1628.50,36.55
1628.00,36.44
1627.50,36.32
1627.00,36.22
1626.50,36.14
1626.00,36.08
1625.50,36.00
1625.00,35.93
1624.50,35.86
1624.00,35.77
1623.50,35.63
1623.00,35.49
1622.50,35.40
1622.00,35.33
1621.50,35.26
1621.00,35.17
1620.50,35.10
1620.00,35.02
1619.50,34.94
1619.00,34.86
1618.50,34.81
1618.00,34.76
1617.50,34.70
1617.00,34.58
1616.50,34.46
1616.00,34.39
1615.50,34.33
1615.00,34.28
1614.50,34.25
1614.00,34.21
1613.50,34.17
1613.00,34.13
1612.50,34.09
1612.00,34.06
1611.50,34.03
1611.00,33.99
1610.50,33.97
1610.00,33.94
1609.50,33.91
1609.00,33.87
1608.50,33.84
1608.00,33.81
1607.50,33.77
1607.00,33.72
1606.50,33.68
1606.00,33.63
1605.50,33.57
1605.00,33.50
1604.50,33.42
1604.00,33.32
1603.50,33.18
1603.00,33.00
1602.50,32.79
1602.00,32.54
1601.50,32.21
1601.00,31.79
1600.50,31.31
1600.00,30.75
1599.50,30.11
1599.00,29.42
1598.50,28.76
1598.00,28.22
1597.50,27.85
1597.00,27.74
1596.50,27.94
1596.00,28.42
1595.50,29.10
1595.00,29.93
1594.50,30.82
1594.00,31.66
1593.50,32.35
1593.00,32.92
1592.50,33.41
1592.00,33.85
1591.50,34.23
1591.00,34.54
1590.50,34.83
1590.00,35.10
1589.50,35.34
1589.00,35.56
1588.50,35.77
1588.00,35.97
1587.50,36.16
1587.00,36.34
1586.50,36.53
1586.00,36.71
1585.50,36.88
1585.00,37.04
1584.50,37.21
1584.00,37.38
1583.50,37.54
1583.00,37.69
1582.50,37.85
1582.00,38.00
1581.50,38.15
1581.00,38.29
1580.50,38.44
1580.00,38.58
1579.50,38.72
1579.00,38.84
1578.50,38.97
1578.00,39.08
1577.50,39.18
1577.00,39.31
1576.50,39.54
1576.00,39.80
1575.50,39.93
1575.00,39.99
1574.50,40.06
1574.00,40.15
1573.50,40.25
1573.00,40.35
1572.50,40.46
1572.00,40.56
1571.50,40.65
1571.00,40.74
1570.50,40.84
1570.00,41.01
1569.50,41.19
1569.00,41.32
1568.50,41.39
1568.00,41.45
1567.50,41.51
1567.00,41.57
1566.50,41.64
1566.00,41.71
1565.50,41.79
1565.00,41.87
1564.50,41.96
1564.00,42.03
1563.50,42.07
1563.00,42.11
1562.50,42.16
1562.00,42.20
1561.50,42.23
1561.00,42.25
1560.50,42.29
1560.00,42.43
1559.50,42.62
1559.00,42.71
1558.50,42.72
1558.00,42.70
1557.50,42.69
1557.00,42.69
1556.50,42.69
1556.00,42.69
1555.50,42.69
1555.00,42.70
1554.50,42.75
1554.00,42.80
1553.50,42.81
1553.00,42.80
1552.50,42.80
1552.00,42.80
1551.50,42.79
1551.00,42.77
1550.50,42.78
1550.00,42.80
1549.50,42.81
1549.00,42.81
1548.50,42.81
1548.00,42.81
1547.50,42.79
1547.00,42.77
1546.50,42.76
1546.00,42.75
1545.50,42.73
1545.00,42.72
1544.50,42.71
1544.00,42.70
1543.50,42.68
1543.00,42.66
1542.50,42.65
1542.00,42.64
1541.50,42.61
1541.00,42.57
1540.50,42.57
1540.00,42.58
1539.50,42.52
1539.00,42.44
1538.50,42.42
1538.00,42.39
1537.50,42.36
1537.00,42.33
1536.50,42.30
1536.00,42.28
1535.50,42.25
1535.00,42.22
1534.50,42.20
1534.00,42.18
1533.50,42.14
1533.00,42.10
1532.50,42.08
1532.00,42.06
1531.50,42.03
1531.00,42.00
1530.50,41.99
1530.00,41.97
1529.50,41.96
1529.00,41.94
1528.50,41.93
1528.00,41.93
1527.50,41.92
1527.00,41.92
1526.50,41.92
1526.00,41.94
1525.50,41.95
1525.00,41.96
1524.50,41.97
1524.00,41.97
1523.50,41.97
1523.00,41.97
1522.50,41.99
1522.00,42.02
1521.50,42.02
1521.00,42.01
1520.50,42.02
1520.00,42.02
1519.50,42.01
1519.00,42.00
1518.50,41.99
1518.00,41.98
1517.50,41.99
1517.00,42.02
1516.50,42.04
1516.00,42.05
1515.50,42.05
1515.00,42.05
1514.50,42.05
1514.00,42.05
1513.50,42.04
1513.00,42.02
1512.50,42.03
1512.00,42.03
1511.50,42.02
1511.00,42.01
1510.50,42.00
1510.00,41.99
1509.50,41.97
1509.00,41.96
1508.50,41.97
1508.00,41.99
1507.50,41.98
1507.00,41.98
1506.50,42.02
1506.00,42.02
1505.50,41.99
1505.00,41.97
1504.50,41.95
1504.00,41.94
1503.50,41.91
1503.00,41.89
1502.50,41.88
1502.00,41.87
1501.50,41.84
1501.00,41.80
1500.50,41.78
1500.00,41.74
1499.50,41.69
1499.00,41.61
1498.50,41.55
1498.00,41.49
1497.50,41.42
1497.00,41.33
1496.50,41.22
1496.00,41.07
1495.50,40.91
1495.00,40.78
1494.50,40.65
1494.00,40.50
1493.50,40.32
1493.00,40.14
1492.50,39.97
1492.00,39.80
1491.50,39.59
1491.00,39.33
1490.50,39.02
1490.00,38.65
1489.50,38.32
1489.00,38.08
1488.50,37.90
1488.00,37.69
1487.50,37.40
1487.00,37.09
1486.50,36.84
1486.00,36.63
1485.50,36.44
1485.00,36.25
1484.50,36.08
1484.00,35.92
1483.50,35.77
1483.00,35.64
1482.50,35.53
1482.00,35.44
1481.50,35.34
1481.00,35.25
1480.50,35.20
1480.00,35.15
1479.50,35.10
1479.00,35.05
1478.50,35.01
1478.00,34.97
1477.50,34.92
1477.00,34.85
1476.50,34.78
1476.00,34.71
1475.50,34.65
1475.00,34.58
1474.50,34.52
1474.00,34.43
1473.50,34.29
1473.00,34.09
1472.50,33.83
1472.00,33.52
1471.50,33.21
1471.00,32.95
1470.50,32.69
1470.00,32.40
1469.50,32.03
1469.00,31.63
1468.50,31.22
1468.00,30.78
1467.50,30.33
1467.00,29.91
1466.50,29.54
1466.00,29.14
1465.50,28.58
1465.00,27.82
1464.50,27.08
1464.00,26.51
1463.50,26.02
1463.00,25.51
1462.50,24.95
1462.00,24.34
1461.50,23.73
1461.00,23.16
1460.50,22.65
1460.00,22.14
1459.50,21.60
1459.00,21.02
1458.50,20.46
1458.00,19.94
1457.50,19.32
1457.00,18.61
1456.50,18.00
1456.00,17.55
1455.50,17.14
1455.00,16.73
1454.50,16.32
1454.00,15.91
1453.50,15.47
1453.00,15.00
1452.50,14.49
1452.00,13.93
1451.50,13.39
1451.00,12.90
1450.50,12.47
1450.00,12.06
1449.50,11.68
1449.00,11.31
1448.50,10.93
1448.00,10.54
1447.50,10.22
1447.00,10.02
1446.50,9.92
1446.00,9.85
1445.50,9.82
1445.00,9.83
1444.50,9.92
1444.00,10.05
1443.50,10.22
1443.00,10.43
1442.50,10.70
1442.00,11.01
1441.50,11.33
1441.00,11.67
1440.50,12.06
1440.00,12.44
1439.50,12.81
1439.00,13.16
1438.50,13.47
1438.00,13.75
1437.50,14.03
1437.00,14.47
1436.50,14.98
1436.00,15.28
1435.50,15.38
1435.00,15.46
1434.50,15.55
1434.00,15.62
1433.50,15.62
1433.00,15.59
1432.50,15.53
1432.00,15.43
1431.50,15.26
1431.00,15.06
1430.50,14.80
1430.00,14.42
1429.50,13.98
1429.00,13.57
1428.50,13.18
1428.00,12.73
1427.50,12.21
1427.00,11.65
1426.50,11.09
1426.00,10.51
1425.50,9.93
1425.00,9.33
1424.50,8.63
1424.00,7.78
1423.50,6.95
1423.00,6.30
1422.50,5.77
1422.00,5.26
1421.50,4.76
1421.00,4.34
1420.50,3.97
1420.00,3.51
1419.50,2.87
1419.00,2.32
1418.50,2.04
1418.00,1.86
1417.50,1.69
1417.00,1.52
1416.50,1.38
1416.00,1.26
1415.50,1.15
1415.00,1.07
1414.50,1.02
1414.00,0.96
1413.50,0.92
1413.00,0.89
1412.50,0.88
1412.00,0.87
1411.50,0.86
1411.00,0.87
1410.50,0.89
1410.00,0.91
1409.50,0.93
1409.00,0.97
1408.50,1.02
1408.00,1.06
1407.50,1.11
1407.00,1.18
1406.50,1.25
1406.00,1.31
1405.50,1.39
1405.00,1.49
1404.50,1.60
1404.00,1.67
1403.50,1.73
1403.00,1.80
1402.50,1.88
1402.00,1.96
1401.50,2.03
1401.00,2.12
1400.50,2.21
1400.00,2.33
1399.50,2.51
1399.00,2.76
1398.50,3.04
1398.00,3.30
1397.50,3.59
1397.00,3.91
1396.50,4.28
1396.00,4.69
1395.50,5.22
1395.00,5.93
1394.50,6.71
1394.00,7.42
1393.50,8.03
1393.00,8.61
1392.50,9.20
1392.00,9.84
1391.50,10.52
1391.00,11.21
1390.50,11.88
1390.00,12.51
1389.50,13.08
1389.00,13.60
1388.50,14.10
1388.00,14.66
1387.50,15.31
1387.00,15.91
1386.50,16.35
1386.00,16.71
1385.50,17.06
1385.00,17.42
1384.50,17.77
1384.00,18.14
1383.50,18.52
1383.00,18.90
1382.50,19.26
1382.00,19.62
1381.50,19.98
1381.00,20.32
1380.50,20.63
1380.00,20.93
1379.50,21.22
1379.00,21.48
1378.50,21.72
1378.00,21.94
1377.50,22.14
1377.00,22.30
1376.50,22.42
1376.00,22.53
1375.50,22.64
1375.00,22.74
1374.50,22.81
1374.00,22.88
1373.50,22.95
1373.00,23.02
1372.50,23.09
1372.00,23.20
1371.50,23.35
1371.00,23.54
1370.50,23.75
1370.00,23.98
1369.50,24.23
1369.00,24.50
1368.50,24.74
1368.00,24.96
1367.50,25.15
1367.00,25.31
1366.50,25.45
1366.00,25.58
1365.50,25.72
1365.00,25.83
1364.50,25.91
1364.00,26.00
1363.50,26.13
1363.00,26.26
1362.50,26.35
1362.00,26.43
1361.50,26.51
1361.00,26.59
1360.50,26.66
1360.00,26.73
1359.50,26.80
1359.00,26.86
1358.50,26.91
1358.00,26.97
1357.50,27.03
1357.00,27.08
1356.50,27.11
1356.00,27.15
1355.50,27.20
1355.00,27.23
1354.50,27.25
1354.00,27.26
1353.50,27.28
1353.00,27.29
1352.50,27.28
1352.00,27.27
1351.50,27.27
1351.00,27.25
1350.50,27.22
1350.00,27.19
1349.50,27.16
1349.00,27.12
1348.50,27.08
1348.00,27.03
1347.50,27.00
1347.00,26.96
1346.50,26.92
1346.00,26.88
1345.50,26.86
1345.00,26.83
1344.50,26.81
1344.00,26.79
1343.50,26.79
1343.00,26.79
1342.50,26.78
1342.00,26.78
1341.50,26.79
1341.00,26.79
1340.50,26.79
1340.00,26.78
1339.50,26.78
1339.00,26.76
1338.50,26.72
1338.00,26.69
1337.50,26.66
1337.00,26.61
1336.50,26.54
1336.00,26.48
1335.50,26.41
1335.00,26.33
1334.50,26.23
1334.00,26.12
1333.50,26.01
1333.00,25.89
1332.50,25.75
1332.00,25.61
1331.50,25.47
1331.00,25.32
1330.50,25.14
1330.00,24.97
1329.50,24.79
1329.00,24.60
1328.50,24.40
1328.00,24.20
1327.50,24.00
1327.00,23.78
1326.50,23.56
1326.00,23.33
1325.50,23.11
1325.00,22.87
1324.50,22.62
1324.00,22.38
1323.50,22.14
1323.00,21.88
1322.50,21.62
1322.00,21.37
1321.50,21.12
1321.00,20.85
1320.50,20.58
1320.00,20.30
1319.50,20.03
1319.00,19.73
1318.50,19.44
1318.00,19.16
1317.50,18.89
1317.00,18.60
1316.50,18.30
1316.00,18.02
1315.50,17.74
1315.00,17.45
1314.50,17.15
1314.00,16.86
1313.50,16.57
1313.00,16.27
1312.50,15.95
1312.00,15.66
1311.50,15.38
1311.00,15.09
1310.50,14.80
1310.00,14.51
1309.50,14.24
1309.00,13.95
1308.50,13.66
1308.00,13.37
1307.50,13.09
1307.00,12.81
1306.50,12.53
1306.00,12.26
1305.50,11.99
1305.00,11.71
1304.50,11.43
1304.00,11.16
1303.50,10.89
1303.00,10.61
1302.50,10.32
1302.00,10.05
1301.50,9.77
1301.00,9.49
1300.50,9.20
1300.00,8.93
1299.50,8.65
1299.00,8.37
1298.50,8.08
1298.00,7.80
1297.50,7.52
1297.00,7.23
1296.50,6.94
1296.00,6.66
1295.50,6.39
1295.00,6.11
1294.50,5.84
1294.00,5.57
1293.50,5.32
1293.00,5.05
1292.50,4.79
1292.00,4.55
1291.50,4.31
1291.00,4.06
1290.50,3.82
1290.00,3.59
1289.50,3.38
1289.00,3.16
1288.50,2.94
1288.00,2.74
1287.50,2.54
1287.00,2.34
1286.50,2.15
1286.00,1.98
1285.50,1.81
1285.00,1.63
1284.50,1.47
1284.00,1.32
1283.50,1.18
1283.00,1.03
1282.50,0.90
1282.00,0.79
1281.50,0.68
1281.00,0.57
1280.50,0.47
1280.00,0.39
1279.50,0.32
1279.00,0.25
1278.50,0.19
1278.00,0.15
1277.50,0.11
1277.00,0.08
1276.50,0.05
1276.00,0.04
1275.50,0.03
1275.00,0.02
1274.50,0.01
1274.00,0.01
1273.50,0.01
1273.00,0.01
1272.50,0.00
1272.00,0.01
1271.50,0.01
1271.00,0.01
1270.50,0.01
1270.00,0.01
1269.50,0.01
1269.00,0.01
1268.50,0.00
1268.00,0.01
1267.50,0.01
1267.00,0.00
1266.50,0.00
1266.00,0.00
1265.50,0.01
1265.00,0.00
1264.50,0.00
1264.00,0.01
1263.50,0.01
1263.00,0.00
1262.50,0.00
1262.00,0.01
1261.50,0.01
1261.00,0.00
1260.50,0.00
1260.00,0.01
1259.50,0.01
1259.00,0.00
1258.50,0.00
1258.00,0.01
1257.50,0.01
1257.00,0.00
1256.50,0.00
1256.00,0.00
1255.50,0.00
1255.00,0.00
1254.50,0.00
1254.00,0.01
1253.50,0.01
1253.00,0.00
1252.50,0.00
1252.00,0.00
1251.50,0.00
1251.00,0.00
1250.50,0.01
1250.00,0.00
1249.50,0.00
1249.00,0.00
1248.50,0.01
1248.00,0.01
1247.50,0.02
1247.00,0.01
1246.50,0.01
1246.00,0.02
1245.50,0.02
1245.00,0.01
1244.50,0.01
1244.00,0.03
1243.50,0.04
1243.00,0.05
1242.50,0.07
1242.00,0.09
1241.50,0.12
1241.00,0.14
1240.50,0.17
1240.00,0.21
1239.50,0.24
1239.00,0.27
1238.50,0.31
1238.00,0.35
1237.50,0.39
1237.00,0.42
1236.50,0.46
1236.00,0.50
1235.50,0.53
1235.00,0.55
1234.50,0.57
1234.00,0.60
1233.50,0.62
1233.00,0.63
1232.50,0.64
1232.00,0.66
1231.50,0.66
1231.00,0.66
1230.50,0.66
1230.00,0.66
1229.50,0.65
1229.00,0.63
1228.50,0.61
1228.00,0.60
1227.50,0.58
1227.00,0.56
1226.50,0.53
1226.00,0.51
1225.50,0.49
1225.00,0.46
1224.50,0.43
1224.00,0.41
1223.50,0.39
1223.00,0.36
1222.50,0.33
1222.00,0.31
1221.50,0.29
1221.00,0.26
1220.50,0.24
1220.00,0.22
1219.50,0.20
1219.00,0.18
1218.50,0.16
1218.00,0.16
1217.50,0.14
1217.00,0.12
1216.50,0.11
1216.00,0.10
1215.50,0.09
1215.00,0.08
1214.50,0.07
1214.00,0.06
1213.50,0.06
1213.00,0.05
1212.50,0.04
1212.00,0.05
1211.50,0.04
1211.00,0.03
1210.50,0.03
1210.00,0.03
1209.50,0.03
1209.00,0.02
1208.50,0.02
1208.00,0.02
1207.50,0.02
1207.00,0.01
1206.50,0.01
1206.00,0.01
1205.50,0.01
1205.00,0.01
1204.50,0.01
1204.00,0.01
1203.50,0.01
1203.00,0.00
1202.50,0.00
1202.00,0.00
1201.50,0.01
1201.00,0.00
1200.50,0.00
1200.00,0.00
1199.50,0.00
1199.00,0.00
1198.50,0.00
1198.00,0.01
1197.50,0.01
1197.00,0.00
1196.50,0.00
1196.00,0.01
1195.50,0.01
1195.00,0.01
1194.50,0.01
1194.00,0.01
1193.50,0.00
1193.00,0.00
1192.50,0.00
1192.00,0.00
1191.50,0.00
1191.00,0.00
1190.50,0.00
1190.00,0.00
1189.50,0.00
1189.00,0.00
1188.50,0.00
1188.00,0.00
1187.50,0.01
1187.00,0.01
1186.50,0.00
1186.00,0.00
1185.50,0.00
1185.00,0.00
1184.50,0.00
1184.00,0.01
1183.50,0.01
1183.00,0.00
1182.50,0.00
1182.00,0.00
1181.50,0.00
1181.00,0.00
1180.50,0.00
1180.00,0.01
1179.50,0.01
1179.00,0.00
1178.50,0.00
1178.00,0.00
1177.50,0.00
1177.00,0.00
1176.50,0.01
1176.00,0.00
1175.50,0.00
1175.00,0.01
1174.50,0.01
1174.00,0.00
1173.50,0.00
1173.00,0.01
1172.50,0.01
1172.00,0.00
1171.50,0.00
1171.00,0.00
1170.50,0.01
1170.00,0.00
1169.50,0.00
1169.00,0.01
1168.50,0.01
1168.00,0.00
1167.50,0.00
1167.00,0.00
1166.50,0.01
1166.00,0.00
1165.50,0.00
1165.00,0.00
1164.50,0.00
1164.00,0.00
1163.50,0.00
1163.00,0.00
1162.50,0.01
1162.00,0.00
1161.50,0.00
1161.00,0.01
1160.50,0.00
1160.00,0.00
1159.50,0.01
1159.00,0.00
1158.50,0.00
1158.00,0.01
1157.50,0.01
1157.00,0.00
1156.50,0.00
1156.00,0.00
1155.50,0.01
1155.00,0.00
1154.50,0.00
1154.00,0.00
1153.50,0.00
1153.00,0.00
1152.50,0.01
1152.00,0.01
1151.50,0.01
1151.00,0.00
1150.50,0.00
1150.00,0.00
1149.50,0.00
1149.00,0.01
1148.50,0.01
1148.00,0.01
1147.50,0.01
1147.00,0.00
1146.50,0.00
1146.00,0.01
1145.50,0.00
1145.00,0.00
1144.50,0.00
1144.00,0.00
1143.50,0.00
1143.00,0.01
1142.50,0.01
1142.00,0.01
1141.50,0.00
1141.00,0.00
1140.50,0.00
1140.00,0.00
1139.50,0.00
1139.00,0.00
1138.50,0.00
1138.00,0.00
1137.50,0.01
1137.00,0.00
1136.50,0.00
1136.00,0.01
1135.50,0.01
1135.00,0.00
1134.50,0.00
1134.00,0.00
1133.50,0.00
1133.00,0.01
1132.50,0.01
1132.00,0.00
1131.50,0.00
1131.00,0.01
1130.50,0.01
1130.00,0.01
1129.50,0.01
1129.00,0.01
1128.50,0.01
1128.00,0.00
1127.50,0.00
1127.00,0.00
1126.50,0.00
1126.00,0.00
1125.50,0.00
1125.00,0.00
1124.50,0.00
1124.00,0.00
1123.50,0.00
1123.00,0.00
1122.50,0.01
1122.00,0.00
1121.50,0.00
1121.00,0.01
1120.50,0.00
1120.00,0.00
1119.50,0.00
1119.00,0.01
1118.50,0.01
1118.00,0.00
1117.50,0.00
1117.00,0.00
1116.50,0.00
1116.00,0.00
1115.50,0.00
1115.00,0.00
1114.50,0.00
1114.00,0.01
1113.50,0.01
1113.00,0.01
1112.50,0.01
1112.00,0.01
1111.50,0.01
1111.00,0.00
1110.50,0.00
1110.00,0.01
1109.50,0.01
1109.00,0.01
1108.50,0.01
1108.00,0.00
1107.50,0.00
1107.00,0.01
1106.50,0.01
1106.00,0.00
1105.50,0.01
1105.00,0.00
1104.50,0.00
1104.00,0.00
1103.50,0.01
1103.00,0.01
1102.50,0.01
1102.00,0.01
1101.50,0.01
1101.00,0.01
1100.50,0.01
1100.00,0.01
1099.50,0.01
1099.00,0.01
1098.50,0.00
1098.00,0.00
1097.50,0.01
1097.00,0.00
1096.50,0.00
1096.00,0.01
1095.50,0.01
1095.00,0.01
1094.50,0.01
1094.00,0.01
1093.50,0.00
1093.00,0.00
1092.50,0.00
1092.00,0.01
1091.50,0.01
1091.00,0.00
1090.50,0.00
1090.00,0.00
1089.50,0.00
1089.00,0.01
1088.50,0.01
1088.00,0.00
1087.50,0.00
1087.00,0.00
1086.50,0.00
1086.00,0.00
1085.50,0.00
1085.00,0.01
1084.50,0.01
1084.00,0.01
1083.50,0.01
1083.00,0.01
1082.50,0.01
1082.00,0.01
1081.50,0.01
1081.00,0.00
1080.50,0.00
1080.00,0.01
1079.50,0.01
1079.00,0.01
1078.50,0.01
1078.00,0.01
1077.50,0.01
1077.00,0.01
1076.50,0.00
1076.00,0.01
1075.50,0.01
1075.00,0.00
1074.50,0.00
1074.00,0.00
1073.50,0.00
1073.00,0.01
1072.50,0.01
1072.00,0.00
1071.50,0.01
1071.00,0.00
1070.50,0.00
1070.00,0.01
1069.50,0.01
1069.00,0.01
1068.50,0.01
1068.00,0.01
1067.50,0.00
1067.00,0.00
1066.50,0.00
1066.00,0.01
1065.50,0.00
1065.00,0.01
1064.50,0.01
1064.00,0.01
1063.50,0.01
1063.00,0.01
1062.50,0.01
1062.00,0.00
1061.50,0.00
1061.00,0.01
1060.50,0.01
1060.00,0.01
1059.50,0.00
1059.00,0.01
1058.50,0.01
1058.00,0.00
1057.50,0.01
1057.00,0.01
1056.50,0.01
1056.00,0.01
1055.50,0.01
1055.00,0.01
1054.50,0.01
1054.00,0.00
1053.50,0.00
1053.00,0.01
1052.50,0.01
1052.00,0.01
1051.50,0.01
1051.00,0.01
1050.50,0.01
1050.00,0.01
1049.50,0.00
1049.00,0.01
1048.50,0.01
1048.00,0.01
1047.50,0.01
1047.00,0.01
1046.50,0.01
1046.00,0.01
1045.50,0.01
1045.00,0.00
1044.50,0.00
1044.00,0.00
1043.50,0.00
1043.00,0.01
1042.50,0.01
1042.00,0.01
1041.50,0.00
1041.00,0.01
1040.50,0.00
1040.00,0.00
1039.50,0.00
1039.00,0.01
1038.50,0.01
1038.00,0.01
1037.50,0.00
1037.00,0.01
1036.50,0.01
1036.00,0.00
1035.50,0.00
1035.00,0.00
1034.50,0.00
1034.00,0.00
1033.50,0.00
1033.00,0.00
1032.50,0.01
1032.00,0.00
1031.50,0.00
1031.00,0.01
1030.50,0.01
1030.00,0.00
1029.50,0.00
1029.00,0.01
1028.50,0.01
1028.00,0.01
1027.50,0.00
1027.00,0.00
1026.50,0.00
1026.00,0.01
1025.50,0.01
1025.00,0.00
1024.50,0.00
1024.00,0.00
1023.50,0.00
1023.00,0.01
1022.50,0.01
1022.00,0.00
1021.50,0.00
1021.00,0.00
1020.50,0.00
1020.00,0.00
1019.50,0.00
1019.00,0.00
1018.50,0.00
1018.00,0.00
1017.50,0.00
1017.00,0.00
1016.50,0.01
1016.00,0.00
1015.50,0.00
1015.00,0.00
1014.50,0.00
1014.00,0.00
1013.50,0.00
1013.00,0.00
1012.50,0.00
1012.00,0.00
1011.50,0.01
1011.00,0.00
1010.50,0.00
1010.00,0.01
1009.50,0.01
1009.00,0.01
1008.50,0.01
1008.00,0.01
1007.50,0.01
1007.00,0.00
1006.50,0.01
1006.00,0.01
1005.50,0.00
1005.00,0.01
1004.50,0.01
1004.00,0.00
1003.50,0.00
1003.00,0.01
1002.50,0.01
1002.00,0.00
1001.50,0.00
1001.00,0.00
1000.50,0.00
1000.00,0.00
999.50,0.00
999.00,0.00
998.50,0.00
998.00,0.00
997.50,0.01
997.00,0.01
996.50,0.00
996.00,0.01
995.50,0.01
995.00,0.01
994.50,0.00
994.00,0.00
993.50,0.00
993.00,0.00
992.50,0.00
992.00,0.00
991.50,0.01
991.00,0.00
990.50,0.00
990.00,0.01
989.50,0.01
989.00,0.01
988.50,0.02
988.00,0.03
987.50,0.04
987.00,0.04
986.50,0.05
986.00,0.06
985.50,0.07
985.00,0.09
984.50,0.10
984.00,0.12
983.50,0.14
983.00,0.15
982.50,0.17
982.00,0.20
981.50,0.23
981.00,0.26
980.50,0.30
980.00,0.33
979.50,0.37
979.00,0.41
978.50,0.45
978.00,0.50
977.50,0.55
977.00,0.60
976.50,0.65
976.00,0.71
975.50,0.77
975.00,0.82
974.50,0.88
974.00,0.94
973.50,1.01
973.00,1.07
972.50,1.13
972.00,1.19
971.50,1.26
971.00,1.33
970.50,1.39
970.00,1.47
969.50,1.53
969.00,1.60
968.50,1.65
968.00,1.72
967.50,1.78
967.00,1.83
966.50,1.89
966.00,1.94
965.50,1.99
965.00,2.03
964.50,2.08
964.00,2.12
963.50,2.16
963.00,2.19
962.50,2.21
962.00,2.24
961.50,2.27
961.00,2.29
960.50,2.31
960.00,2.34
959.50,2.37
959.00,2.39
958.50,2.42
958.00,2.45
957.50,2.49
957.00,2.53
956.50,2.59
956.00,2.66
955.50,2.74
955.00,2.83
954.50,2.93
954.00,3.05
953.50,3.19
953.00,3.33
952.50,3.50
952.00,3.67
951.50,3.85
951.00,4.03
950.50,4.20
950.00,4.37
949.50,4.53
949.00,4.68
948.50,4.82
948.00,4.95
947.50,5.07
947.00,5.18
946.50,5.28
946.00,5.37
945.50,5.45
945.00,5.52
944.50,5.58
944.00,5.64
943.50,5.68
943.00,5.72
942.50,5.75
942.00,5.77
941.50,5.78
941.00,5.79
940.50,5.78
940.00,5.77
939.50,5.76
939.00,5.73
938.50,5.69
938.00,5.64
937.50,5.58
937.00,5.51
936.50,5.43
936.00,5.34
935.50,5.24
935.00,5.13
934.50,5.00
934.00,4.88
933.50,4.75
933.00,4.60
932.50,4.45
932.00,4.29
931.50,4.12
931.00,3.95
930.50,3.77
930.00,3.60
929.50,3.44
929.00,3.28
928.50,3.13
928.00,2.99
927.50,2.85
927.00,2.72
926.50,2.60
926.00,2.48
925.50,2.37
925.00,2.26
924.50,2.14
924.00,2.03
923.50,1.91
923.00,1.79
922.50,1.66
922.00,1.53
921.50,1.40
921.00,1.27
920.50,1.14
920.00,1.02
919.50,0.91
919.00,0.80
918.50,0.71
918.00,0.63
917.50,0.57
917.00,0.51
916.50,0.46
916.00,0.42
915.50,0.38
915.00,0.35
914.50,0.33
914.00,0.32
913.50,0.30
913.00,0.29
912.50,0.27
912.00,0.27
911.50,0.28
911.00,0.28
910.50,0.28
910.00,0.30
909.50,0.31
909.00,0.33
908.50,0.34
908.00,0.36
907.50,0.38
907.00,0.40
906.50,0.41
906.00,0.43
905.50,0.44
905.00,0.44
904.50,0.44
904.00,0.44
903.50,0.44
903.00,0.43
902.50,0.41
902.00,0.39
901.50,0.36
901.00,0.34
900.50,0.31
900.00,0.29
899.50,0.26
899.00,0.23
898.50,0.20
898.00,0.18
897.50,0.16
897.00,0.15
896.50,0.13
896.00,0.12
895.50,0.11
895.00,0.09
894.50,0.08
894.00,0.08
893.50,0.07
893.00,0.06
892.50,0.05
892.00,0.04
891.50,0.04
891.00,0.03
890.50,0.02
890.00,0.02
889.50,0.02
889.00,0.02
888.50,0.01
888.00,0.01
887.50,0.00
887.00,0.00
886.50,0.01
886.00,0.00
885.50,0.00
885.00,0.01
884.50,0.01
884.00,0.00
883.50,0.00
883.00,0.00
882.50,0.00
882.00,0.00
881.50,0.01
881.00,0.01
880.50,0.01
880.00,0.01
879.50,0.01
879.00,0.01
878.50,0.00
878.00,0.01
877.50,0.02
877.00,0.02
876.50,0.01
876.00,0.01
875.50,0.01
875.00,0.01
874.50,0.01
874.00,0.01
873.50,0.02
873.00,0.01
872.50,0.01
872.00,0.01
871.50,0.00
871.00,0.01
870.50,0.01
870.00,0.01
869.50,0.00
869.00,0.01
868.50,0.00
868.00,0.00
867.50,0.00
867.00,0.01
866.50,0.01
866.00,0.01
865.50,0.00
865.00,0.00
864.50,0.00
864.00,0.01
863.50,0.01
863.00,0.01
862.50,0.01
862.00,0.01
861.50,0.01
861.00,0.01
860.50,0.01
860.00,0.01
859.50,0.01
859.00,0.01
858.50,0.01
858.00,0.02
857.50,0.02
857.00,0.02
856.50,0.02
856.00,0.01
855.50,0.01
855.00,0.01
854.50,0.01
854.00,0.01
853.50,0.01
853.00,0.01
852.50,0.01
852.00,0.01
851.50,0.00
851.00,0.00
850.50,0.00
850.00,0.00
849.50,0.01
849.00,0.00
848.50,0.01
848.00,0.01
847.50,0.01
847.00,0.01
846.50,0.01
846.00,0.01
845.50,0.01
845.00,0.00
844.50,0.00
844.00,0.01
843.50,0.01
843.00,0.01
842.50,0.01
842.00,0.01
841.50,0.01
841.00,0.01
840.50,0.02
840.00,0.02
839.50,0.02
839.00,0.02
838.50,0.02
838.00,0.01
837.50,0.01
837.00,0.01
836.50,0.01
836.00,0.01
835.50,0.01
835.00,0.01
834.50,0.01
834.00,0.00
833.50,0.01
833.00,0.00
832.50,0.01
832.00,0.02
831.50,0.02
831.00,0.02
830.50,0.01
830.00,0.01
829.50,0.01
829.00,0.01
828.50,0.02
828.00,0.02
827.50,0.01
827.00,0.01
826.50,0.00
826.00,0.01
825.50,0.01
825.00,0.01
824.50,0.01
824.00,0.02
823.50,0.02
823.00,0.01
822.50,0.01
822.00,0.01
821.50,0.01
821.00,0.01
820.50,0.00
820.00,0.01
819.50,0.02
819.00,0.01
818.50,0.01
818.00,0.01
817.50,0.01
817.00,0.01
816.50,0.01
816.00,0.00
815.50,0.00
815.00,0.00
814.50,0.00
814.00,0.01
813.50,0.01
813.00,0.01
812.50,0.00
812.00,0.01
811.50,0.02
811.00,0.02
810.50,0.01
810.00,0.00
809.50,0.00
809.00,0.00
808.50,0.01
808.00,0.01
807.50,0.01
807.00,0.01
806.50,0.01
806.00,0.02
805.50,0.02
805.00,0.01
804.50,0.00
804.00,0.00
803.50,0.01
803.00,0.01
802.50,0.01
802.00,0.01
801.50,0.01
801.00,0.01
800.50,0.01
800.00,0.00
799.50,0.00
799.00,0.00
798.50,0.01
798.00,0.02
797.50,0.02
797.00,0.01
796.50,0.01
796.00,0.00
795.50,0.01
795.00,0.01
794.50,0.01
794.00,0.01
793.50,0.02
793.00,0.01
792.50,0.01
792.00,0.01
791.50,0.01
791.00,0.00
790.50,0.01
790.00,0.01
789.50,0.01
789.00,0.01
788.50,0.01
788.00,0.01
787.50,0.00
787.00,0.01
786.50,0.01
786.00,0.00
785.50,0.00
785.00,0.00
784.50,0.00
784.00,0.01
783.50,0.01
783.00,0.01
782.50,0.00
782.00,0.01
781.50,0.01
781.00,0.01
780.50,0.01
780.00,0.01
779.50,0.02
779.00,0.01
778.50,0.00
778.00,0.00
777.50,0.00
777.00,0.01
776.50,0.01
776.00,0.01
775.50,0.01
775.00,0.01
774.50,0.02
774.00,0.02
773.50,0.02
773.00,0.01
772.50,0.01
772.00,0.01
771.50,0.01
771.00,0.01
770.50,0.01
770.00,0.01
769.50,0.02
769.00,0.02
768.50,0.02
768.00,0.01
767.50,0.00
767.00,0.01
766.50,0.02
766.00,0.02
765.50,0.01
765.00,0.01
764.50,0.01
764.00,0.01
763.50,0.01
763.00,0.01
762.50,0.00
762.00,0.00
761.50,0.00
761.00,0.01
760.50,0.01
760.00,0.01
759.50,0.01
759.00,0.01
758.50,0.02
758.00,0.02
757.50,0.02
757.00,0.02
756.50,0.02
756.00,0.01
755.50,0.00
755.00,0.01
754.50,0.01
754.00,0.01
753.50,0.01
753.00,0.01
752.50,0.01
752.00,0.02
751.50,0.04
751.00,0.06
750.50,0.08
750.00,0.12
749.50,0.17
749.00,0.22
748.50,0.27
748.00,0.34
747.50,0.40
747.00,0.47
746.50,0.55
746.00,0.62
745.50,0.70
745.00,0.78
744.50,0.86
744.00,0.94
743.50,1.01
743.00,1.09
742.50,1.16
742.00,1.23
741.50,1.30
741.00,1.37
740.50,1.44
740.00,1.52
739.50,1.60
739.00,1.67
738.50,1.74
738.00,1.81
737.50,1.88
737.00,1.96
736.50,2.03
736.00,2.10
735.50,2.16
735.00,2.22
734.50,2.26
734.00,2.31
733.50,2.36
733.00,2.40
732.50,2.44
732.00,2.47
731.50,2.50
731.00,2.52
730.50,2.55
730.00,2.57
729.50,2.59
729.00,2.60
728.50,2.60
728.00,2.59
727.50,2.59
727.00,2.59
726.50,2.58
726.00,2.57
725.50,2.56
725.00,2.54
724.50,2.52
724.00,2.49
723.50,2.47
723.00,2.44
722.50,2.41
722.00,2.37
721.50,2.34
721.00,2.29
720.50,2.23
720.00,2.16
719.50,2.10
719.00,2.02
718.50,1.95
718.00,1.87
717.50,1.79
717.00,1.70
716.50,1.60
716.00,1.51
715.50,1.40
715.00,1.29
714.50,1.16
714.00,1.04
713.50,0.93
713.00,0.82
712.50,0.72
712.00,0.62
711.50,0.54
711.00,0.46
710.50,0.38
710.00,0.33
709.50,0.28
709.00,0.24
708.50,0.20
708.00,0.17
707.50,0.15
707.00,0.14
706.50,0.13
706.00,0.12
705.50,0.12
705.00,0.12
704.50,0.11
704.00,0.11
703.50,0.11
703.00,0.11
702.50,0.11
702.00,0.11
701.50,0.11
701.00,0.11
700.50,0.11
700.00,0.11
699.50,0.11
699.00,0.11
698.50,0.11
698.00,0.11
697.50,0.11
697.00,0.11
696.50,0.11
696.00,0.11
695.50,0.11
695.00,0.12
694.50,0.12
694.00,0.12
693.50,0.11
693.00,0.11
692.50,0.10
692.00,0.10
691.50,0.10
691.00,0.10
690.50,0.10
690.00,0.10
689.50,0.10
689.00,0.11
688.50,0.11
688.00,0.12
687.50,0.12
687.00,0.13
686.50,0.13
686.00,0.14
685.50,0.16
685.00,0.18
684.50,0.20
684.00,0.23
683.50,0.26
683.00,0.30
682.50,0.34
682.00,0.38
681.50,0.42
681.00,0.46
680.50,0.49
680.00,0.53
679.50,0.57
679.00,0.61
678.50,0.64
678.00,0.67
677.50,0.71
677.00,0.76
676.50,0.80
676.00,0.85
675.50,0.89
675.00,0.93
674.50,0.96
674.00,0.99
673.50,1.03
673.00,1.06
672.50,1.08
672.00,1.10
671.50,1.11
671.00,1.12
670.50,1.14
670.00,1.15
669.50,1.17
669.00,1.19
668.50,1.19
668.00,1.14
667.50,1.10
667.00,1.08
666.50,1.06
666.00,1.05
665.50,1.03
665.00,1.00
664.50,0.97
664.00,0.92
663.50,0.87
663.00,0.83
662.50,0.79
662.00,0.75
661.50,0.74
661.00,0.75
660.50,0.80
660.00,0.90
659.50,1.08
659.00,1.38
658.50,1.81
658.00,2.38
657.50,3.08
657.00,3.87
656.50,4.68
656.00,5.48
655.50,6.24
655.00,6.92
654.50,7.53
654.00,8.08
653.50,8.56
653.00,8.97
652.50,9.32
652.00,9.61
651.50,9.86
651.00,10.07
650.50,10.24
650.00,10.38
649.50,10.49
649.00,10.57
648.50,10.63
648.00,10.66
647.50,10.68
647.00,10.67
646.50,10.64
646.00,10.60
645.50,10.56
645.00,10.51
644.50,10.45
644.00,10.37
643.50,10.29
643.00,10.19
642.50,10.08
642.00,9.95
641.50,9.82
641.00,9.69
640.50,9.56
640.00,9.43
639.50,9.29
639.00,9.15
638.50,9.01
638.00,8.87
637.50,8.74
637.00,8.61
636.50,8.50
636.00,8.39
635.50,8.29
635.00,8.20
634.50,8.11
634.00,8.02
633.50,7.94
633.00,7.87
632.50,7.81
632.00,7.75
631.50,7.69
631.00,7.64
630.50,7.59
630.00,7.54
629.50,7.50
629.00,7.47
628.50,7.45
628.00,7.43
627.50,7.42
627.00,7.41
626.50,7.40
626.00,7.39
625.50,7.38
625.00,7.38
624.50,7.38
624.00,7.39
623.50,7.41
623.00,7.44
622.50,7.46
622.00,7.48
621.50,7.51
621.00,7.54
620.50,7.57
620.00,7.60
619.50,7.62
619.00,7.64
618.50,7.65
618.00,7.65
617.50,7.65
617.00,7.65
616.50,7.64
616.00,7.62
615.50,7.60
615.00,7.59
614.50,7.59
614.00,7.59
613.50,7.60
613.00,7.59
612.50,7.57
612.00,7.53
611.50,7.48
611.00,7.42
610.50,7.33
610.00,7.21
609.50,7.07
609.00,6.89
608.50,6.67
608.00,6.41
607.50,6.13
607.00,5.83
606.50,5.49
606.00,5.13
605.50,4.75
605.00,4.35
604.50,3.96
604.00,3.59
603.50,3.27
603.00,2.99
602.50,2.77
602.00,2.59
601.50,2.47
601.00,2.39
600.50,2.36
600.00,2.37
599.50,2.42
599.00,2.48
598.50,2.57
598.00,2.66
597.50,2.77
597.00,2.90
596.50,3.02
596.00,3.13
595.50,3.24
595.00,3.35
594.50,3.45
594.00,3.53
593.50,3.59
593.00,3.63
592.50,3.66
592.00,3.67
591.50,3.66
591.00,3.65
590.50,3.61
590.00,3.56
589.50,3.49
589.00,3.41
588.50,3.32
588.00,3.21
587.50,3.10
587.00,2.98
586.50,2.86
586.00,2.73
585.50,2.59
585.00,2.47
584.50,2.35
584.00,2.24
583.50,2.13
583.00,2.03
582.50,1.92
582.00,1.82
581.50,1.71
581.00,1.62
580.50,1.54
580.00,1.46
579.50,1.40
579.00,1.34
578.50,1.29
578.00,1.23
577.50,1.18
577.00,1.13
576.50,1.08
576.00,1.04
575.50,1.01
575.00,0.98
574.50,0.96
574.00,0.93
573.50,0.89
573.00,0.87
572.50,0.84
572.00,0.82
571.50,0.79
571.00,0.78
570.50,0.76
570.00,0.74
569.50,0.72
569.00,0.72
568.50,0.71
568.00,0.71
567.50,0.69
567.00,0.68
566.50,0.67
566.00,0.65
565.50,0.64
565.00,0.62
564.50,0.61
564.00,0.60
563.50,0.59
563.00,0.58
562.50,0.57
562.00,0.55
561.50,0.55
561.00,0.55
560.50,0.55
560.00,0.55
559.50,0.53
559.00,0.52
558.50,0.52
558.00,0.51
557.50,0.51
557.00,0.51
556.50,0.50
556.00,0.49
555.50,0.47
555.00,0.46
554.50,0.45
554.00,0.45
553.50,0.45
553.00,0.45
552.50,0.45
552.00,0.44
551.50,0.43
551.00,0.42
550.50,0.42
550.00,0.41
549.50,0.39
549.00,0.37
548.50,0.35
548.00,0.34
547.50,0.34
547.00,0.36
546.50,0.38
546.00,0.38
545.50,0.37
545.00,0.35
544.50,0.33
544.00,0.31
543.50,0.30
543.00,0.30
542.50,0.31
542.00,0.30
541.50,0.29
541.00,0.30
540.50,0.31
540.00,0.32
539.50,0.31
539.00,0.30
538.50,0.28
538.00,0.26
537.50,0.25
537.00,0.26
536.50,0.27
536.00,0.28
535.50,0.28
535.00,0.27
534.50,0.27
534.00,0.25
533.50,0.23
533.00,0.23
532.50,0.23
532.00,0.23
531.50,0.22
531.00,0.23
530.50,0.22
530.00,0.21
529.50,0.20
529.00,0.19
528.50,0.19
528.00,0.17
527.50,0.15
527.00,0.15
526.50,0.15
526.00,0.16
525.50,0.16
525.00,0.17
524.50,0.18
524.00,0.18
523.50,0.18
523.00,0.18
522.50,0.18
522.00,0.17
521.50,0.15
521.00,0.14
520.50,0.14
520.00,0.13
519.50,0.13
519.00,0.14
518.50,0.15
518.00,0.14
517.50,0.13
517.00,0.13
516.50,0.14
516.00,0.13
515.50,0.13
515.00,0.13
514.50,0.13
514.00,0.12
513.50,0.11
513.00,0.11
512.50,0.11
512.00,0.11
511.50,0.11
511.00,0.12
510.50,0.12
510.00,0.12
509.50,0.11
509.00,0.09
508.50,0.07
508.00,0.04
507.50,0.03
507.00,0.04
506.50,0.06
506.00,0.07
505.50,0.07
505.00,0.07
504.50,0.08
504.00,0.07
503.50,0.06
503.00,0.07
502.50,0.08
502.00,0.08
501.50,0.07
501.00,0.08
500.50,0.09
500.00,0.07
499.50,0.04
499.00,0.03
498.50,0.02
498.00,0.01
497.50,0.01
497.00,0.04
496.50,0.06
496.00,0.06
495.50,0.05
495.00,0.04
494.50,0.03
494.00,0.02
493.50,0.02
493.00,0.03
492.50,0.02
492.00,0.01
491.50,0.02
491.00,0.02
490.50,0.03
490.00,0.05
489.50,0.05
489.00,0.05
488.50,0.06
488.00,0.04
487.50,0.04
487.00,0.06
486.50,0.08
486.00,0.05
485.50,0.01
485.00,0.02
484.50,0.04
484.00,0.02
483.50,0.01
483.00,0.01
482.50,0.02
482.00,0.02
481.50,0.02
481.00,0.03
480.50,0.01
480.00,0.02
479.50,0.05
479.00,0.06
478.50,0.04
478.00,0.05
477.50,0.06
477.00,0.05
476.50,0.06
476.00,0.06
475.50,0.05
475.00,0.05
474.50,0.05
474.00,0.02
473.50,0.03
473.00,0.09
472.50,0.13
472.00,0.12
471.50,0.11
471.00,0.09
470.50,0.08
470.00,0.08
469.50,0.09
469.00,0.07
468.50,0.06
468.00,0.05
467.50,0.02
467.00,0.01
466.50,0.03
466.00,0.05
465.50,0.07
465.00,0.09
464.50,0.09
464.00,0.11
463.50,0.14
463.00,0.14
462.50,0.12
462.00,0.12
461.50,0.12
461.00,0.08
460.50,0.06
460.00,0.05
459.50,0.03
459.00,0.06
458.50,0.13
458.00,0.16
457.50,0.10
457.00,0.06
456.50,0.06
456.00,0.03
455.50,0.01
455.00,0.04
454.50,0.06
454.00,0.08
453.50,0.08
453.00,0.06
452.50,0.03
452.00,0.06
451.50,0.11
451.00,0.12
450.50,0.11
450.00,0.12
449.50,0.13
449.00,0.10
448.50,0.06
448.00,0.07
447.50,0.08
447.00,0.10
446.50,0.15
446.00,0.14
445.50,0.07
445.00,0.03
444.50,0.04
444.00,0.03
443.50,0.02
443.00,0.03
442.50,0.06
442.00,0.11
441.50,0.12
441.00,0.10
440.50,0.08
440.00,0.07
439.50,0.06
439.00,0.05
438.50,0.05
438.00,0.09
437.50,0.15
437.00,0.17
436.50,0.15
436.00,0.14
435.50,0.14
435.00,0.16
434.50,0.15
434.00,0.14
433.50,0.09
433.00,0.05
432.50,0.05
432.00,0.03
431.50,0.04
431.00,0.07
430.50,0.08
430.00,0.14
429.50,0.18
429.00,0.15
428.50,0.08
428.00,0.06
427.50,0.08
427.00,0.11
426.50,0.11
426.00,0.18
425.50,0.30
425.00,0.33
424.50,0.27
424.00,0.26
423.50,0.28
423.00,0.24
422.50,0.14
422.00,0.09
421.50,0.08
421.00,0.06
420.50,0.08
420.00,0.06
419.50,0.27
419.00,0.40
418.50,0.31
418.00,0.30
417.50,0.28
417.00,0.18
416.50,0.13
416.00,0.16
415.50,0.18
415.00,0.22
414.50,0.26
414.00,0.25
413.50,0.21
413.00,0.16
412.50,0.17
412.00,0.12
411.50,0.06
411.00,0.09
410.50,0.05
410.00,0.10
409.50,0.18
409.00,0.11
408.50,0.11
408.00,0.09
407.50,0.10
407.00,0.23
406.50,0.32
406.00,0.44
405.50,0.53
405.00,0.46
404.50,0.32
404.00,0.22
403.50,0.20
403.00,0.12
402.50,0.07
402.00,0.12
401.50,0.26
401.00,0.56
400.50,0.90
400.00,1.18
