Created as New Dataset,Sample 229 By irlear Date Friday, April 24 2009
cm-1,A
4000.00,0.0012
3999.00,0.0012
3998.00,0.0012
3997.00,0.0012
3996.00,0.0012
3995.00,0.0013
3994.00,0.0013
3993.00,0.0013
3992.00,0.0012
3991.00,0.0012
3990.00,0.0012
3989.00,0.0012
3988.00,0.0012
3987.00,0.0012
3986.00,0.0012
3985.00,0.0012
3984.00,0.0012
3983.00,0.0012
3982.00,0.0012
3981.00,0.0012
3980.00,0.0012
3979.00,0.0012
3978.00,0.0013
3977.00,0.0013
3976.00,0.0013
3975.00,0.0013
3974.00,0.0013
3973.00,0.0013
3972.00,0.0013
3971.00,0.0013
3970.00,0.0013
3969.00,0.0013
3968.00,0.0013
3967.00,0.0013
3966.00,0.0012
3965.00,0.0012
3964.00,0.0012
3963.00,0.0013
3962.00,0.0013
3961.00,0.0014
3960.00,0.0014
3959.00,0.0014
3958.00,0.0014
3957.00,0.0014
3956.00,0.0014
3955.00,0.0013
3954.00,0.0013
3953.00,0.0012
3952.00,0.0012
3951.00,0.0012
3950.00,0.0013
3949.00,0.0013
3948.00,0.0013
3947.00,0.0013
3946.00,0.0013
3945.00,0.0013
3944.00,0.0013
3943.00,0.0013
3942.00,0.0013
3941.00,0.0013
3940.00,0.0013
3939.00,0.0013
3938.00,0.0013
3937.00,0.0013
3936.00,0.0014
3935.00,0.0014
3934.00,0.0014
3933.00,0.0014
3932.00,0.0015
3931.00,0.0015
3930.00,0.0015
3929.00,0.0015
3928.00,0.0015
3927.00,0.0015
3926.00,0.0014
3925.00,0.0014
3924.00,0.0013
3923.00,0.0013
3922.00,0.0013
3921.00,0.0013
3920.00,0.0013
3919.00,0.0012
3918.00,0.0012
3917.00,0.0012
3916.00,0.0012
3915.00,0.0012
3914.00,0.0013
3913.00,0.0013
3912.00,0.0013
3911.00,0.0013
3910.00,0.0013
3909.00,0.0013
3908.00,0.0012
3907.00,0.0012
3906.00,0.0012
3905.00,0.0012
3904.00,0.0012
3903.00,0.0012
3902.00,0.0012
3901.00,0.0012
3900.00,0.0011
3899.00,0.0011
3898.00,0.0011
3897.00,0.0011
3896.00,0.0011
3895.00,0.0011
3894.00,0.0011
3893.00,0.0012
3892.00,0.0012
3891.00,0.0012
3890.00,0.0012
3889.00,0.0012
3888.00,0.0012
3887.00,0.0012
3886.00,0.0012
3885.00,0.0012
3884.00,0.0013
3883.00,0.0013
3882.00,0.0013
3881.00,0.0013
3880.00,0.0012
3879.00,0.0013
3878.00,0.0013
3877.00,0.0013
3876.00,0.0014
3875.00,0.0014
3874.00,0.0014
3873.00,0.0014
3872.00,0.0014
3871.00,0.0014
3870.00,0.0013
3869.00,0.0013
3868.00,0.0013
3867.00,0.0013
3866.00,0.0013
3865.00,0.0014
3864.00,0.0014
3863.00,0.0014
3862.00,0.0014
3861.00,0.0014
3860.00,0.0014
3859.00,0.0014
3858.00,0.0013
3857.00,0.0013
3856.00,0.0012
3855.00,0.0012
3854.00,0.0012
3853.00,0.0012
3852.00,0.0011
3851.00,0.0011
3850.00,0.0012
3849.00,0.0012
3848.00,0.0012
3847.00,0.0012
3846.00,0.0012
3845.00,0.0012
3844.00,0.0012
3843.00,0.0012
3842.00,0.0012
3841.00,0.0011
3840.00,0.0011
3839.00,0.0011
3838.00,0.0011
3837.00,0.0011
3836.00,0.0011
3835.00,0.0012
3834.00,0.0012
3833.00,0.0013
3832.00,0.0013
3831.00,0.0013
3830.00,0.0013
3829.00,0.0013
3828.00,0.0013
3827.00,0.0013
3826.00,0.0014
3825.00,0.0014
3824.00,0.0013
3823.00,0.0013
3822.00,0.0013
3821.00,0.0013
3820.00,0.0013
3819.00,0.0014
3818.00,0.0014
3817.00,0.0014
3816.00,0.0014
3815.00,0.0014
3814.00,0.0014
3813.00,0.0014
3812.00,0.0014
3811.00,0.0014
3810.00,0.0014
3809.00,0.0014
3808.00,0.0014
3807.00,0.0013
3806.00,0.0012
3805.00,0.0012
3804.00,0.0011
3803.00,0.0012
3802.00,0.0012
3801.00,0.0013
3800.00,0.0013
3799.00,0.0013
3798.00,0.0013
3797.00,0.0013
3796.00,0.0013
3795.00,0.0013
3794.00,0.0013
3793.00,0.0013
3792.00,0.0013
3791.00,0.0013
3790.00,0.0013
3789.00,0.0013
3788.00,0.0013
3787.00,0.0013
3786.00,0.0013
3785.00,0.0013
3784.00,0.0013
3783.00,0.0013
3782.00,0.0013
3781.00,0.0012
3780.00,0.0012
3779.00,0.0012
3778.00,0.0012
3777.00,0.0012
3776.00,0.0012
3775.00,0.0013
3774.00,0.0013
3773.00,0.0013
3772.00,0.0013
3771.00,0.0012
3770.00,0.0012
3769.00,0.0012
3768.00,0.0013
3767.00,0.0013
3766.00,0.0014
3765.00,0.0014
3764.00,0.0015
3763.00,0.0015
3762.00,0.0015
3761.00,0.0015
3760.00,0.0014
3759.00,0.0014
3758.00,0.0013
3757.00,0.0013
3756.00,0.0013
3755.00,0.0013
3754.00,0.0013
3753.00,0.0013
3752.00,0.0014
3751.00,0.0014
3750.00,0.0014
3749.00,0.0013
3748.00,0.0013
3747.00,0.0012
3746.00,0.0011
3745.00,0.0011
3744.00,0.0010
3743.00,0.0011
3742.00,0.0011
3741.00,0.0011
3740.00,0.0011
3739.00,0.0011
3738.00,0.0010
3737.00,0.0010
3736.00,0.0010
3735.00,0.0011
3734.00,0.0011
3733.00,0.0012
3732.00,0.0012
3731.00,0.0013
3730.00,0.0013
3729.00,0.0014
3728.00,0.0014
3727.00,0.0014
3726.00,0.0015
3725.00,0.0014
3724.00,0.0014
3723.00,0.0013
3722.00,0.0012
3721.00,0.0012
3720.00,0.0012
3719.00,0.0012
3718.00,0.0013
3717.00,0.0013
3716.00,0.0013
3715.00,0.0014
3714.00,0.0014
3713.00,0.0014
3712.00,0.0015
3711.00,0.0015
3710.00,0.0015
3709.00,0.0015
3708.00,0.0015
3707.00,0.0015
3706.00,0.0015
3705.00,0.0015
3704.00,0.0014
3703.00,0.0014
3702.00,0.0014
3701.00,0.0014
3700.00,0.0014
3699.00,0.0014
3698.00,0.0014
3697.00,0.0013
3696.00,0.0013
3695.00,0.0013
3694.00,0.0013
3693.00,0.0013
3692.00,0.0014
3691.00,0.0014
3690.00,0.0014
3689.00,0.0014
3688.00,0.0014
3687.00,0.0013
3686.00,0.0013
3685.00,0.0012
3684.00,0.0012
3683.00,0.0012
3682.00,0.0013
3681.00,0.0013
3680.00,0.0013
3679.00,0.0014
3678.00,0.0014
3677.00,0.0014
3676.00,0.0014
3675.00,0.0014
3674.00,0.0014
3673.00,0.0013
3672.00,0.0013
3671.00,0.0013
3670.00,0.0013
3669.00,0.0013
3668.00,0.0014
3667.00,0.0014
3666.00,0.0014
3665.00,0.0014
3664.00,0.0014
3663.00,0.0014
3662.00,0.0014
3661.00,0.0014
3660.00,0.0013
3659.00,0.0013
3658.00,0.0013
3657.00,0.0014
3656.00,0.0014
3655.00,0.0015
3654.00,0.0015
3653.00,0.0015
3652.00,0.0015
3651.00,0.0014
3650.00,0.0014
3649.00,0.0013
3648.00,0.0013
3647.00,0.0013
3646.00,0.0013
3645.00,0.0013
3644.00,0.0014
3643.00,0.0014
3642.00,0.0015
3641.00,0.0015
3640.00,0.0015
3639.00,0.0014
3638.00,0.0014
3637.00,0.0014
3636.00,0.0014
3635.00,0.0014
3634.00,0.0014
3633.00,0.0014
3632.00,0.0014
3631.00,0.0014
3630.00,0.0014
3629.00,0.0014
3628.00,0.0014
3627.00,0.0014
3626.00,0.0015
3625.00,0.0015
3624.00,0.0015
3623.00,0.0014
3622.00,0.0014
3621.00,0.0015
3620.00,0.0015
3619.00,0.0015
3618.00,0.0015
3617.00,0.0014
3616.00,0.0014
3615.00,0.0014
3614.00,0.0015
3613.00,0.0015
3612.00,0.0015
3611.00,0.0015
3610.00,0.0015
3609.00,0.0015
3608.00,0.0015
3607.00,0.0015
3606.00,0.0015
3605.00,0.0015
3604.00,0.0015
3603.00,0.0015
3602.00,0.0016
3601.00,0.0016
3600.00,0.0016
3599.00,0.0016
3598.00,0.0016
3597.00,0.0015
3596.00,0.0015
3595.00,0.0014
3594.00,0.0013
3593.00,0.0013
3592.00,0.0013
3591.00,0.0013
3590.00,0.0014
3589.00,0.0014
3588.00,0.0014
3587.00,0.0015
3586.00,0.0015
3585.00,0.0015
3584.00,0.0015
3583.00,0.0015
3582.00,0.0014
3581.00,0.0014
3580.00,0.0014
3579.00,0.0014
3578.00,0.0014
3577.00,0.0014
3576.00,0.0014
3575.00,0.0014
3574.00,0.0015
3573.00,0.0015
3572.00,0.0015
3571.00,0.0015
3570.00,0.0015
3569.00,0.0014
3568.00,0.0014
3567.00,0.0014
3566.00,0.0015
3565.00,0.0015
3564.00,0.0015
3563.00,0.0015
3562.00,0.0015
3561.00,0.0016
3560.00,0.0016
3559.00,0.0016
3558.00,0.0015
3557.00,0.0015
3556.00,0.0015
3555.00,0.0014
3554.00,0.0014
3553.00,0.0014
3552.00,0.0014
3551.00,0.0015
3550.00,0.0015
3549.00,0.0015
3548.00,0.0016
3547.00,0.0015
3546.00,0.0015
3545.00,0.0015
3544.00,0.0014
3543.00,0.0014
3542.00,0.0014
3541.00,0.0014
3540.00,0.0014
3539.00,0.0014
3538.00,0.0015
3537.00,0.0015
3536.00,0.0015
3535.00,0.0015
3534.00,0.0015
3533.00,0.0015
3532.00,0.0016
3531.00,0.0016
3530.00,0.0015
3529.00,0.0015
3528.00,0.0015
3527.00,0.0015
3526.00,0.0015
3525.00,0.0015
3524.00,0.0015
3523.00,0.0014
3522.00,0.0014
3521.00,0.0014
3520.00,0.0014
3519.00,0.0014
3518.00,0.0014
3517.00,0.0015
3516.00,0.0015
3515.00,0.0015
3514.00,0.0015
3513.00,0.0016
3512.00,0.0016
3511.00,0.0016
3510.00,0.0016
3509.00,0.0016
3508.00,0.0016
3507.00,0.0016
3506.00,0.0016
3505.00,0.0015
3504.00,0.0015
3503.00,0.0014
3502.00,0.0014
3501.00,0.0014
3500.00,0.0014
3499.00,0.0014
3498.00,0.0014
3497.00,0.0014
3496.00,0.0014
3495.00,0.0014
3494.00,0.0015
3493.00,0.0015
3492.00,0.0015
3491.00,0.0015
3490.00,0.0015
3489.00,0.0014
3488.00,0.0014
3487.00,0.0014
3486.00,0.0014
3485.00,0.0014
3484.00,0.0014
3483.00,0.0014
3482.00,0.0014
3481.00,0.0014
3480.00,0.0013
3479.00,0.0013
3478.00,0.0014
3477.00,0.0014
3476.00,0.0014
3475.00,0.0015
3474.00,0.0015
3473.00,0.0015
3472.00,0.0014
3471.00,0.0014
3470.00,0.0014
3469.00,0.0014
3468.00,0.0014
3467.00,0.0014
3466.00,0.0014
3465.00,0.0014
3464.00,0.0014
3463.00,0.0014
3462.00,0.0014
3461.00,0.0014
3460.00,0.0014
3459.00,0.0014
3458.00,0.0014
3457.00,0.0014
3456.00,0.0014
3455.00,0.0014
3454.00,0.0014
3453.00,0.0014
3452.00,0.0014
3451.00,0.0014
3450.00,0.0014
3449.00,0.0014
3448.00,0.0014
3447.00,0.0014
3446.00,0.0014
3445.00,0.0014
3444.00,0.0014
3443.00,0.0014
3442.00,0.0014
3441.00,0.0014
3440.00,0.0014
3439.00,0.0014
3438.00,0.0014
3437.00,0.0013
3436.00,0.0013
3435.00,0.0013
3434.00,0.0013
3433.00,0.0013
3432.00,0.0013
3431.00,0.0013
3430.00,0.0014
3429.00,0.0014
3428.00,0.0014
3427.00,0.0014
3426.00,0.0014
3425.00,0.0014
3424.00,0.0014
3423.00,0.0014
3422.00,0.0013
3421.00,0.0013
3420.00,0.0013
3419.00,0.0013
3418.00,0.0013
3417.00,0.0014
3416.00,0.0014
3415.00,0.0014
3414.00,0.0013
3413.00,0.0013
3412.00,0.0013
3411.00,0.0013
3410.00,0.0013
3409.00,0.0013
3408.00,0.0014
3407.00,0.0014
3406.00,0.0014
3405.00,0.0014
3404.00,0.0014
3403.00,0.0014
3402.00,0.0014
3401.00,0.0013
3400.00,0.0013
3399.00,0.0013
3398.00,0.0013
3397.00,0.0013
3396.00,0.0012
3395.00,0.0012
3394.00,0.0012
3393.00,0.0013
3392.00,0.0013
3391.00,0.0013
3390.00,0.0014
3389.00,0.0014
3388.00,0.0013
3387.00,0.0013
3386.00,0.0013
3385.00,0.0012
3384.00,0.0012
3383.00,0.0013
3382.00,0.0013
3381.00,0.0014
3380.00,0.0014
3379.00,0.0014
3378.00,0.0014
3377.00,0.0014
3376.00,0.0014
3375.00,0.0013
3374.00,0.0013
3373.00,0.0013
3372.00,0.0013
3371.00,0.0013
3370.00,0.0013
3369.00,0.0014
3368.00,0.0014
3367.00,0.0015
3366.00,0.0015
3365.00,0.0015
3364.00,0.0015
3363.00,0.0014
3362.00,0.0013
3361.00,0.0013
3360.00,0.0013
3359.00,0.0013
3358.00,0.0013
3357.00,0.0013
3356.00,0.0014
3355.00,0.0014
3354.00,0.0014
3353.00,0.0014
3352.00,0.0014
3351.00,0.0014
3350.00,0.0014
3349.00,0.0013
3348.00,0.0013
3347.00,0.0013
3346.00,0.0013
3345.00,0.0013
3344.00,0.0013
3343.00,0.0013
3342.00,0.0013
3341.00,0.0013
3340.00,0.0013
3339.00,0.0012
3338.00,0.0012
3337.00,0.0012
3336.00,0.0012
3335.00,0.0013
3334.00,0.0013
3333.00,0.0014
3332.00,0.0014
3331.00,0.0014
3330.00,0.0014
3329.00,0.0014
3328.00,0.0014
3327.00,0.0014
3326.00,0.0014
3325.00,0.0014
3324.00,0.0014
3323.00,0.0013
3322.00,0.0013
3321.00,0.0012
3320.00,0.0012
3319.00,0.0013
3318.00,0.0013
3317.00,0.0013
3316.00,0.0013
3315.00,0.0013
3314.00,0.0013
3313.00,0.0013
3312.00,0.0013
3311.00,0.0013
3310.00,0.0013
3309.00,0.0013
3308.00,0.0013
3307.00,0.0013
3306.00,0.0013
3305.00,0.0013
3304.00,0.0013
3303.00,0.0014
3302.00,0.0014
3301.00,0.0014
3300.00,0.0014
3299.00,0.0014
3298.00,0.0014
3297.00,0.0013
3296.00,0.0013
3295.00,0.0012
3294.00,0.0012
3293.00,0.0012
3292.00,0.0012
3291.00,0.0012
3290.00,0.0012
3289.00,0.0012
3288.00,0.0013
3287.00,0.0013
3286.00,0.0014
3285.00,0.0014
3284.00,0.0014
3283.00,0.0014
3282.00,0.0014
3281.00,0.0014
3280.00,0.0014
3279.00,0.0013
3278.00,0.0013
3277.00,0.0013
3276.00,0.0013
3275.00,0.0013
3274.00,0.0013
3273.00,0.0013
3272.00,0.0014
3271.00,0.0014
3270.00,0.0014
3269.00,0.0014
3268.00,0.0014
3267.00,0.0014
3266.00,0.0013
3265.00,0.0013
3264.00,0.0013
3263.00,0.0014
3262.00,0.0014
3261.00,0.0014
3260.00,0.0014
3259.00,0.0014
3258.00,0.0014
3257.00,0.0013
3256.00,0.0013
3255.00,0.0013
3254.00,0.0013
3253.00,0.0013
3252.00,0.0013
3251.00,0.0013
3250.00,0.0013
3249.00,0.0013
3248.00,0.0013
3247.00,0.0013
3246.00,0.0014
3245.00,0.0014
3244.00,0.0014
3243.00,0.0014
3242.00,0.0013
3241.00,0.0013
3240.00,0.0012
3239.00,0.0012
3238.00,0.0012
3237.00,0.0012
3236.00,0.0011
3235.00,0.0011
3234.00,0.0011
3233.00,0.0011
3232.00,0.0011
3231.00,0.0012
3230.00,0.0012
3229.00,0.0013
3228.00,0.0013
3227.00,0.0013
3226.00,0.0013
3225.00,0.0013
3224.00,0.0013
3223.00,0.0013
3222.00,0.0013
3221.00,0.0013
3220.00,0.0013
3219.00,0.0013
3218.00,0.0013
3217.00,0.0013
3216.00,0.0013
3215.00,0.0013
3214.00,0.0013
3213.00,0.0013
3212.00,0.0013
3211.00,0.0013
3210.00,0.0012
3209.00,0.0012
3208.00,0.0012
3207.00,0.0012
3206.00,0.0013
3205.00,0.0013
3204.00,0.0013
3203.00,0.0014
3202.00,0.0014
3201.00,0.0014
3200.00,0.0014
3199.00,0.0014
3198.00,0.0014
3197.00,0.0014
3196.00,0.0014
3195.00,0.0014
3194.00,0.0014
3193.00,0.0014
3192.00,0.0014
3191.00,0.0014
3190.00,0.0014
3189.00,0.0014
3188.00,0.0013
3187.00,0.0013
3186.00,0.0014
3185.00,0.0014
3184.00,0.0014
3183.00,0.0014
3182.00,0.0014
3181.00,0.0013
3180.00,0.0013
3179.00,0.0013
3178.00,0.0013
3177.00,0.0013
3176.00,0.0013
3175.00,0.0013
3174.00,0.0013
3173.00,0.0013
3172.00,0.0013
3171.00,0.0014
3170.00,0.0014
3169.00,0.0014
3168.00,0.0014
3167.00,0.0014
3166.00,0.0013
3165.00,0.0013
3164.00,0.0014
3163.00,0.0014
3162.00,0.0014
3161.00,0.0013
3160.00,0.0013
3159.00,0.0013
3158.00,0.0014
3157.00,0.0014
3156.00,0.0014
3155.00,0.0014
3154.00,0.0014
3153.00,0.0014
3152.00,0.0014
3151.00,0.0013
3150.00,0.0013
3149.00,0.0013
3148.00,0.0013
3147.00,0.0013
3146.00,0.0013
3145.00,0.0013
3144.00,0.0014
3143.00,0.0014
3142.00,0.0014
3141.00,0.0014
3140.00,0.0013
3139.00,0.0013
3138.00,0.0013
3137.00,0.0014
3136.00,0.0014
3135.00,0.0014
3134.00,0.0014
3133.00,0.0014
3132.00,0.0014
3131.00,0.0014
3130.00,0.0014
3129.00,0.0014
3128.00,0.0014
3127.00,0.0014
3126.00,0.0015
3125.00,0.0015
3124.00,0.0016
3123.00,0.0016
3122.00,0.0016
3121.00,0.0015
3120.00,0.0015
3119.00,0.0015
3118.00,0.0015
3117.00,0.0015
3116.00,0.0015
3115.00,0.0015
3114.00,0.0015
3113.00,0.0015
3112.00,0.0015
3111.00,0.0015
3110.00,0.0015
3109.00,0.0015
3108.00,0.0015
3107.00,0.0015
3106.00,0.0015
3105.00,0.0015
3104.00,0.0016
3103.00,0.0016
3102.00,0.0016
3101.00,0.0016
3100.00,0.0016
3099.00,0.0015
3098.00,0.0015
3097.00,0.0015
3096.00,0.0015
3095.00,0.0015
3094.00,0.0015
3093.00,0.0015
3092.00,0.0014
3091.00,0.0014
3090.00,0.0015
3089.00,0.0015
3088.00,0.0015
3087.00,0.0015
3086.00,0.0014
3085.00,0.0014
3084.00,0.0014
3083.00,0.0014
3082.00,0.0015
3081.00,0.0015
3080.00,0.0015
3079.00,0.0015
3078.00,0.0015
3077.00,0.0015
3076.00,0.0015
3075.00,0.0015
3074.00,0.0015
3073.00,0.0015
3072.00,0.0015
3071.00,0.0015
3070.00,0.0015
3069.00,0.0015
3068.00,0.0015
3067.00,0.0016
3066.00,0.0016
3065.00,0.0016
3064.00,0.0016
3063.00,0.0016
3062.00,0.0016
3061.00,0.0016
3060.00,0.0016
3059.00,0.0016
3058.00,0.0016
3057.00,0.0016
3056.00,0.0016
3055.00,0.0016
3054.00,0.0016
3053.00,0.0016
3052.00,0.0016
3051.00,0.0015
3050.00,0.0015
3049.00,0.0014
3048.00,0.0014
3047.00,0.0014
3046.00,0.0014
3045.00,0.0014
3044.00,0.0014
3043.00,0.0013
3042.00,0.0013
3041.00,0.0013
3040.00,0.0014
3039.00,0.0014
3038.00,0.0014
3037.00,0.0015
3036.00,0.0015
3035.00,0.0015
3034.00,0.0015
3033.00,0.0015
3032.00,0.0015
3031.00,0.0015
3030.00,0.0015
3029.00,0.0016
3028.00,0.0016
3027.00,0.0016
3026.00,0.0015
3025.00,0.0015
3024.00,0.0015
3023.00,0.0015
3022.00,0.0015
3021.00,0.0015
3020.00,0.0016
3019.00,0.0016
3018.00,0.0016
3017.00,0.0016
3016.00,0.0016
3015.00,0.0017
3014.00,0.0017
3013.00,0.0017
3012.00,0.0017
3011.00,0.0017
3010.00,0.0016
3009.00,0.0016
3008.00,0.0016
3007.00,0.0017
3006.00,0.0017
3005.00,0.0017
3004.00,0.0017
3003.00,0.0017
3002.00,0.0017
3001.00,0.0017
3000.00,0.0017
2999.00,0.0017
2998.00,0.0017
2997.00,0.0017
2996.00,0.0017
2995.00,0.0018
2994.00,0.0018
2993.00,0.0018
2992.00,0.0019
2991.00,0.0019
2990.00,0.0020
2989.00,0.0021
2988.00,0.0022
2987.00,0.0023
2986.00,0.0024
2985.00,0.0025
2984.00,0.0026
2983.00,0.0027
2982.00,0.0029
2981.00,0.0030
2980.00,0.0032
2979.00,0.0034
2978.00,0.0037
2977.00,0.0040
2976.00,0.0043
2975.00,0.0048
2974.00,0.0052
2973.00,0.0058
2972.00,0.0063
2971.00,0.0069
2970.00,0.0076
2969.00,0.0083
2968.00,0.0091
2967.00,0.0098
2966.00,0.0104
2965.00,0.0109
2964.00,0.0113
2963.00,0.0115
2962.00,0.0115
2961.00,0.0113
2960.00,0.0109
2959.00,0.0103
2958.00,0.0096
2957.00,0.0089
2956.00,0.0082
2955.00,0.0074
2954.00,0.0068
2953.00,0.0061
2952.00,0.0056
2951.00,0.0051
2950.00,0.0047
2949.00,0.0043
2948.00,0.0040
2947.00,0.0037
2946.00,0.0034
2945.00,0.0032
2944.00,0.0030
2943.00,0.0029
2942.00,0.0028
2941.00,0.0027
2940.00,0.0026
2939.00,0.0026
2938.00,0.0025
2937.00,0.0024
2936.00,0.0023
2935.00,0.0022
2934.00,0.0022
2933.00,0.0022
2932.00,0.0022
2931.00,0.0021
2930.00,0.0021
2929.00,0.0020
2928.00,0.0020
2927.00,0.0020
2926.00,0.0019
2925.00,0.0019
2924.00,0.0019
2923.00,0.0018
2922.00,0.0018
2921.00,0.0019
2920.00,0.0019
2919.00,0.0019
2918.00,0.0020
2917.00,0.0021
2916.00,0.0021
2915.00,0.0022
2914.00,0.0023
2913.00,0.0023
2912.00,0.0024
2911.00,0.0025
2910.00,0.0026
2909.00,0.0027
2908.00,0.0028
2907.00,0.0028
2906.00,0.0028
2905.00,0.0028
2904.00,0.0028
2903.00,0.0028
2902.00,0.0027
2901.00,0.0027
2900.00,0.0026
2899.00,0.0025
2898.00,0.0025
2897.00,0.0024
2896.00,0.0024
2895.00,0.0023
2894.00,0.0022
2893.00,0.0022
2892.00,0.0021
2891.00,0.0020
2890.00,0.0020
2889.00,0.0020
2888.00,0.0019
2887.00,0.0019
2886.00,0.0019
2885.00,0.0019
2884.00,0.0019
2883.00,0.0019
2882.00,0.0019
2881.00,0.0018
2880.00,0.0018
2879.00,0.0018
2878.00,0.0018
2877.00,0.0018
2876.00,0.0018
2875.00,0.0017
2874.00,0.0017
2873.00,0.0016
2872.00,0.0016
2871.00,0.0015
2870.00,0.0015
2869.00,0.0015
2868.00,0.0015
2867.00,0.0015
2866.00,0.0016
2865.00,0.0016
2864.00,0.0016
2863.00,0.0016
2862.00,0.0016
2861.00,0.0016
2860.00,0.0016
2859.00,0.0016
2858.00,0.0016
2857.00,0.0016
2856.00,0.0015
2855.00,0.0015
2854.00,0.0014
2853.00,0.0014
2852.00,0.0015
2851.00,0.0015
2850.00,0.0015
2849.00,0.0015
2848.00,0.0015
2847.00,0.0015
2846.00,0.0014
2845.00,0.0014
2844.00,0.0015
2843.00,0.0015
2842.00,0.0016
2841.00,0.0016
2840.00,0.0016
2839.00,0.0016
2838.00,0.0016
2837.00,0.0016
2836.00,0.0016
2835.00,0.0015
2834.00,0.0015
2833.00,0.0015
2832.00,0.0015
2831.00,0.0015
2830.00,0.0015
2829.00,0.0015
2828.00,0.0016
2827.00,0.0016
2826.00,0.0016
2825.00,0.0016
2824.00,0.0016
2823.00,0.0016
2822.00,0.0016
2821.00,0.0017
2820.00,0.0017
2819.00,0.0017
2818.00,0.0017
2817.00,0.0017
2816.00,0.0017
2815.00,0.0017
2814.00,0.0017
2813.00,0.0016
2812.00,0.0016
2811.00,0.0016
2810.00,0.0015
2809.00,0.0015
2808.00,0.0015
2807.00,0.0015
2806.00,0.0016
2805.00,0.0016
2804.00,0.0016
2803.00,0.0016
2802.00,0.0016
2801.00,0.0016
2800.00,0.0016
2799.00,0.0016
2798.00,0.0016
2797.00,0.0016
2796.00,0.0016
2795.00,0.0016
2794.00,0.0016
2793.00,0.0015
2792.00,0.0015
2791.00,0.0015
2790.00,0.0015
2789.00,0.0015
2788.00,0.0015
2787.00,0.0015
2786.00,0.0014
2785.00,0.0014
2784.00,0.0015
2783.00,0.0015
2782.00,0.0015
2781.00,0.0014
2780.00,0.0014
2779.00,0.0014
2778.00,0.0014
2777.00,0.0014
2776.00,0.0014
2775.00,0.0014
2774.00,0.0014
2773.00,0.0014
2772.00,0.0014
2771.00,0.0014
2770.00,0.0014
2769.00,0.0014
2768.00,0.0014
2767.00,0.0014
2766.00,0.0014
2765.00,0.0014
2764.00,0.0014
2763.00,0.0014
2762.00,0.0015
2761.00,0.0015
2760.00,0.0015
2759.00,0.0014
2758.00,0.0014
2757.00,0.0014
2756.00,0.0014
2755.00,0.0014
2754.00,0.0013
2753.00,0.0013
2752.00,0.0013
2751.00,0.0013
2750.00,0.0013
2749.00,0.0013
2748.00,0.0013
2747.00,0.0013
2746.00,0.0013
2745.00,0.0014
2744.00,0.0014
2743.00,0.0014
2742.00,0.0014
2741.00,0.0014
2740.00,0.0014
2739.00,0.0014
2738.00,0.0013
2737.00,0.0013
2736.00,0.0013
2735.00,0.0013
2734.00,0.0013
2733.00,0.0013
2732.00,0.0013
2731.00,0.0013
2730.00,0.0013
2729.00,0.0013
2728.00,0.0013
2727.00,0.0013
2726.00,0.0013
2725.00,0.0013
2724.00,0.0013
2723.00,0.0012
2722.00,0.0012
2721.00,0.0012
2720.00,0.0013
2719.00,0.0013
2718.00,0.0013
2717.00,0.0013
2716.00,0.0013
2715.00,0.0013
2714.00,0.0013
2713.00,0.0012
2712.00,0.0012
2711.00,0.0013
2710.00,0.0013
2709.00,0.0013
2708.00,0.0013
2707.00,0.0013
2706.00,0.0013
2705.00,0.0012
2704.00,0.0012
2703.00,0.0012
2702.00,0.0012
2701.00,0.0013
2700.00,0.0013
2699.00,0.0013
2698.00,0.0013
2697.00,0.0013
2696.00,0.0013
2695.00,0.0013
2694.00,0.0013
2693.00,0.0013
2692.00,0.0013
2691.00,0.0013
2690.00,0.0013
2689.00,0.0013
2688.00,0.0013
2687.00,0.0013
2686.00,0.0012
2685.00,0.0012
2684.00,0.0012
2683.00,0.0012
2682.00,0.0012
2681.00,0.0013
2680.00,0.0013
2679.00,0.0014
2678.00,0.0014
2677.00,0.0014
2676.00,0.0014
2675.00,0.0014
2674.00,0.0014
2673.00,0.0014
2672.00,0.0014
2671.00,0.0014
2670.00,0.0014
2669.00,0.0014
2668.00,0.0013
2667.00,0.0013
2666.00,0.0013
2665.00,0.0013
2664.00,0.0013
2663.00,0.0013
2662.00,0.0012
2661.00,0.0012
2660.00,0.0012
2659.00,0.0012
2658.00,0.0012
2657.00,0.0012
2656.00,0.0013
2655.00,0.0013
2654.00,0.0013
2653.00,0.0013
2652.00,0.0013
2651.00,0.0013
2650.00,0.0013
2649.00,0.0013
2648.00,0.0012
2647.00,0.0012
2646.00,0.0012
2645.00,0.0012
2644.00,0.0011
2643.00,0.0011
2642.00,0.0011
2641.00,0.0011
2640.00,0.0011
2639.00,0.0011
2638.00,0.0011
2637.00,0.0011
2636.00,0.0011
2635.00,0.0011
2634.00,0.0011
2633.00,0.0011
2632.00,0.0012
2631.00,0.0012
2630.00,0.0012
2629.00,0.0012
2628.00,0.0012
2627.00,0.0012
2626.00,0.0011
2625.00,0.0011
2624.00,0.0011
2623.00,0.0011
2622.00,0.0011
2621.00,0.0011
2620.00,0.0011
2619.00,0.0011
2618.00,0.0011
2617.00,0.0011
2616.00,0.0011
2615.00,0.0011
2614.00,0.0010
2613.00,0.0010
2612.00,0.0010
2611.00,0.0010
2610.00,0.0010
2609.00,0.0010
2608.00,0.0010
2607.00,0.0010
2606.00,0.0010
2605.00,0.0010
2604.00,0.0010
2603.00,0.0010
2602.00,0.0010
2601.00,0.0010
2600.00,0.0010
2599.00,0.0010
2598.00,0.0010
2597.00,0.0010
2596.00,0.0011
2595.00,0.0011
2594.00,0.0011
2593.00,0.0011
2592.00,0.0010
2591.00,0.0010
2590.00,0.0011
2589.00,0.0011
2588.00,0.0011
2587.00,0.0012
2586.00,0.0012
2585.00,0.0011
2584.00,0.0011
2583.00,0.0010
2582.00,0.0010
2581.00,0.0009
2580.00,0.0009
2579.00,0.0010
2578.00,0.0009
2577.00,0.0009
2576.00,0.0009
2575.00,0.0009
2574.00,0.0008
2573.00,0.0008
2572.00,0.0008
2571.00,0.0009
2570.00,0.0009
2569.00,0.0010
2568.00,0.0010
2567.00,0.0010
2566.00,0.0010
2565.00,0.0010
2564.00,0.0010
2563.00,0.0009
2562.00,0.0008
2561.00,0.0008
2560.00,0.0008
2559.00,0.0008
2558.00,0.0008
2557.00,0.0008
2556.00,0.0008
2555.00,0.0009
2554.00,0.0009
2553.00,0.0009
2552.00,0.0009
2551.00,0.0008
2550.00,0.0008
2549.00,0.0008
2548.00,0.0008
2547.00,0.0007
2546.00,0.0007
2545.00,0.0008
2544.00,0.0009
2543.00,0.0009
2542.00,0.0009
2541.00,0.0009
2540.00,0.0009
2539.00,0.0008
2538.00,0.0008
2537.00,0.0008
2536.00,0.0008
2535.00,0.0008
2534.00,0.0008
2533.00,0.0008
2532.00,0.0008
2531.00,0.0007
2530.00,0.0007
2529.00,0.0007
2528.00,0.0006
2527.00,0.0007
2526.00,0.0007
2525.00,0.0008
2524.00,0.0008
2523.00,0.0007
2522.00,0.0007
2521.00,0.0006
2520.00,0.0006
2519.00,0.0006
2518.00,0.0006
2517.00,0.0007
2516.00,0.0007
2515.00,0.0008
2514.00,0.0009
2513.00,0.0010
2512.00,0.0010
2511.00,0.0011
2510.00,0.0011
2509.00,0.0010
2508.00,0.0010
2507.00,0.0009
2506.00,0.0008
2505.00,0.0007
2504.00,0.0007
2503.00,0.0007
2502.00,0.0008
2501.00,0.0009
2500.00,0.0010
2499.00,0.0011
2498.00,0.0011
2497.00,0.0010
2496.00,0.0010
2495.00,0.0009
2494.00,0.0008
2493.00,0.0008
2492.00,0.0008
2491.00,0.0008
2490.00,0.0008
2489.00,0.0008
2488.00,0.0008
2487.00,0.0008
2486.00,0.0008
2485.00,0.0008
2484.00,0.0008
2483.00,0.0009
2482.00,0.0009
2481.00,0.0009
2480.00,0.0009
2479.00,0.0009
2478.00,0.0009
2477.00,0.0008
2476.00,0.0008
2475.00,0.0008
2474.00,0.0008
2473.00,0.0008
2472.00,0.0009
2471.00,0.0009
2470.00,0.0009
2469.00,0.0009
2468.00,0.0009
2467.00,0.0009
2466.00,0.0009
2465.00,0.0009
2464.00,0.0008
2463.00,0.0008
2462.00,0.0008
2461.00,0.0008
2460.00,0.0008
2459.00,0.0008
2458.00,0.0008
2457.00,0.0008
2456.00,0.0008
2455.00,0.0008
2454.00,0.0008
2453.00,0.0008
2452.00,0.0008
2451.00,0.0008
2450.00,0.0008
2449.00,0.0008
2448.00,0.0009
2447.00,0.0009
2446.00,0.0009
2445.00,0.0008
2444.00,0.0008
2443.00,0.0007
2442.00,0.0006
2441.00,0.0006
2440.00,0.0006
2439.00,0.0007
2438.00,0.0008
2437.00,0.0008
2436.00,0.0009
2435.00,0.0009
2434.00,0.0008
2433.00,0.0008
2432.00,0.0008
2431.00,0.0008
2430.00,0.0008
2429.00,0.0009
2428.00,0.0009
2427.00,0.0008
2426.00,0.0008
2425.00,0.0008
2424.00,0.0008
2423.00,0.0008
2422.00,0.0008
2421.00,0.0008
2420.00,0.0008
2419.00,0.0008
2418.00,0.0009
2417.00,0.0009
2416.00,0.0009
2415.00,0.0009
2414.00,0.0008
2413.00,0.0008
2412.00,0.0008
2411.00,0.0008
2410.00,0.0008
2409.00,0.0008
2408.00,0.0008
2407.00,0.0009
2406.00,0.0009
2405.00,0.0009
2404.00,0.0009
2403.00,0.0009
2402.00,0.0009
2401.00,0.0010
2400.00,0.0010
2399.00,0.0010
2398.00,0.0010
2397.00,0.0009
2396.00,0.0009
2395.00,0.0009
2394.00,0.0009
2393.00,0.0009
2392.00,0.0009
2391.00,0.0009
2390.00,0.0009
2389.00,0.0009
2388.00,0.0010
2387.00,0.0010
2386.00,0.0011
2385.00,0.0011
2384.00,0.0011
2383.00,0.0010
2382.00,0.0010
2381.00,0.0010
2380.00,0.0011
2379.00,0.0011
2378.00,0.0012
2377.00,0.0012
2376.00,0.0011
2375.00,0.0011
2374.00,0.0010
2373.00,0.0011
2372.00,0.0011
2371.00,0.0012
2370.00,0.0013
2369.00,0.0013
2368.00,0.0014
2367.00,0.0014
2366.00,0.0013
2365.00,0.0012
2364.00,0.0011
2363.00,0.0010
2362.00,0.0010
2361.00,0.0010
2360.00,0.0011
2359.00,0.0011
2358.00,0.0012
2357.00,0.0013
2356.00,0.0013
2355.00,0.0014
2354.00,0.0014
2353.00,0.0013
2352.00,0.0011
2351.00,0.0011
2350.00,0.0010
2349.00,0.0010
2348.00,0.0010
2347.00,0.0010
2346.00,0.0009
2345.00,0.0008
2344.00,0.0007
2343.00,0.0007
2342.00,0.0007
2341.00,0.0008
2340.00,0.0008
2339.00,0.0009
2338.00,0.0009
2337.00,0.0009
2336.00,0.0009
2335.00,0.0008
2334.00,0.0008
2333.00,0.0008
2332.00,0.0008
2331.00,0.0009
2330.00,0.0009
2329.00,0.0010
2328.00,0.0010
2327.00,0.0011
2326.00,0.0010
2325.00,0.0009
2324.00,0.0009
2323.00,0.0008
2322.00,0.0007
2321.00,0.0007
2320.00,0.0007
2319.00,0.0007
2318.00,0.0008
2317.00,0.0008
2316.00,0.0008
2315.00,0.0007
2314.00,0.0007
2313.00,0.0007
2312.00,0.0007
2311.00,0.0008
2310.00,0.0008
2309.00,0.0007
2308.00,0.0006
2307.00,0.0006
2306.00,0.0006
2305.00,0.0006
2304.00,0.0007
2303.00,0.0008
2302.00,0.0008
2301.00,0.0009
2300.00,0.0009
2299.00,0.0009
2298.00,0.0009
2297.00,0.0008
2296.00,0.0008
2295.00,0.0007
2294.00,0.0007
2293.00,0.0007
2292.00,0.0006
2291.00,0.0006
2290.00,0.0005
2289.00,0.0005
2288.00,0.0005
2287.00,0.0005
2286.00,0.0005
2285.00,0.0006
2284.00,0.0006
2283.00,0.0006
2282.00,0.0005
2281.00,0.0005
2280.00,0.0006
2279.00,0.0007
2278.00,0.0007
2277.00,0.0008
2276.00,0.0007
2275.00,0.0007
2274.00,0.0006
2273.00,0.0004
2272.00,0.0003
2271.00,0.0003
2270.00,0.0003
2269.00,0.0004
2268.00,0.0004
2267.00,0.0004
2266.00,0.0004
2265.00,0.0004
2264.00,0.0004
2263.00,0.0004
2262.00,0.0004
2261.00,0.0004
2260.00,0.0003
2259.00,0.0003
2258.00,0.0003
2257.00,0.0003
2256.00,0.0003
2255.00,0.0003
2254.00,0.0003
2253.00,0.0004
2252.00,0.0004
2251.00,0.0005
2250.00,0.0005
2249.00,0.0005
2248.00,0.0004
2247.00,0.0003
2246.00,0.0003
2245.00,0.0003
2244.00,0.0003
2243.00,0.0003
2242.00,0.0003
2241.00,0.0003
2240.00,0.0004
2239.00,0.0004
2238.00,0.0005
2237.00,0.0005
2236.00,0.0005
2235.00,0.0006
2234.00,0.0006
2233.00,0.0005
2232.00,0.0004
2231.00,0.0003
2230.00,0.0001
2229.00,0.0001
2228.00,0.0001
2227.00,0.0002
2226.00,0.0002
2225.00,0.0003
2224.00,0.0003
2223.00,0.0002
2222.00,0.0002
2221.00,0.0001
2220.00,-0.0000
2219.00,-0.0001
2218.00,-0.0001
2217.00,-0.0001
2216.00,-0.0001
2215.00,-0.0001
2214.00,-0.0001
2213.00,-0.0001
2212.00,-0.0001
2211.00,-0.0002
2210.00,-0.0002
2209.00,-0.0003
2208.00,-0.0003
2207.00,-0.0003
2206.00,-0.0002
2205.00,-0.0001
2204.00,-0.0001
2203.00,-0.0000
2202.00,-0.0000
2201.00,-0.0000
2200.00,-0.0000
2199.00,0.0000
2198.00,0.0001
2197.00,0.0001
2196.00,0.0001
2195.00,0.0000
2194.00,-0.0001
2193.00,-0.0002
2192.00,-0.0002
2191.00,-0.0002
2190.00,-0.0001
2189.00,-0.0001
2188.00,-0.0001
2187.00,-0.0001
2186.00,-0.0001
2185.00,-0.0001
2184.00,-0.0002
2183.00,-0.0003
2182.00,-0.0003
2181.00,-0.0004
2180.00,-0.0005
2179.00,-0.0006
2178.00,-0.0007
2177.00,-0.0008
2176.00,-0.0007
2175.00,-0.0005
2174.00,-0.0002
2173.00,-0.0000
2172.00,0.0001
2171.00,-0.0000
2170.00,-0.0002
2169.00,-0.0005
2168.00,-0.0006
2167.00,-0.0007
2166.00,-0.0008
2165.00,-0.0008
2164.00,-0.0009
2163.00,-0.0008
2162.00,-0.0007
2161.00,-0.0005
2160.00,-0.0003
2159.00,-0.0002
2158.00,-0.0001
2157.00,-0.0002
2156.00,-0.0004
2155.00,-0.0005
2154.00,-0.0006
2153.00,-0.0004
2152.00,-0.0002
2151.00,0.0000
2150.00,0.0002
2149.00,0.0002
2148.00,0.0002
2147.00,0.0001
2146.00,0.0000
2145.00,0.0000
2144.00,0.0001
2143.00,0.0002
2142.00,0.0002
2141.00,0.0003
2140.00,0.0003
2139.00,0.0003
2138.00,0.0003
2137.00,0.0002
2136.00,-0.0000
2135.00,-0.0002
2134.00,-0.0003
2133.00,-0.0004
2132.00,-0.0004
2131.00,-0.0003
2130.00,-0.0002
2129.00,-0.0002
2128.00,-0.0001
2127.00,-0.0001
2126.00,0.0000
2125.00,0.0001
2124.00,0.0001
2123.00,0.0001
2122.00,0.0001
2121.00,0.0000
2120.00,0.0001
2119.00,0.0002
2118.00,0.0003
2117.00,0.0004
2116.00,0.0004
2115.00,0.0004
2114.00,0.0004
2113.00,0.0004
2112.00,0.0004
2111.00,0.0004
2110.00,0.0003
2109.00,0.0003
2108.00,0.0004
2107.00,0.0004
2106.00,0.0005
2105.00,0.0005
2104.00,0.0005
2103.00,0.0005
2102.00,0.0005
2101.00,0.0005
2100.00,0.0006
2099.00,0.0006
2098.00,0.0005
2097.00,0.0004
2096.00,0.0003
2095.00,0.0002
2094.00,0.0002
2093.00,0.0002
2092.00,0.0003
2091.00,0.0004
2090.00,0.0005
2089.00,0.0004
2088.00,0.0003
2087.00,0.0002
2086.00,0.0001
2085.00,0.0001
2084.00,0.0001
2083.00,0.0000
2082.00,-0.0000
2081.00,-0.0000
2080.00,0.0000
2079.00,0.0001
2078.00,0.0002
2077.00,0.0002
2076.00,0.0001
2075.00,0.0001
2074.00,0.0000
2073.00,-0.0000
2072.00,-0.0000
2071.00,0.0000
2070.00,0.0001
2069.00,0.0002
2068.00,0.0002
2067.00,0.0001
2066.00,0.0001
2065.00,0.0001
2064.00,0.0002
2063.00,0.0003
2062.00,0.0005
2061.00,0.0006
2060.00,0.0007
2059.00,0.0008
2058.00,0.0007
2057.00,0.0006
2056.00,0.0004
2055.00,0.0001
2054.00,-0.0000
2053.00,-0.0001
2052.00,-0.0000
2051.00,0.0001
2050.00,0.0001
2049.00,0.0001
2048.00,0.0000
2047.00,-0.0001
2046.00,-0.0002
2045.00,-0.0002
2044.00,-0.0001
2043.00,-0.0001
2042.00,-0.0001
2041.00,-0.0002
2040.00,-0.0003
2039.00,-0.0004
2038.00,-0.0004
2037.00,-0.0003
2036.00,-0.0003
2035.00,-0.0003
2034.00,-0.0002
2033.00,-0.0001
2032.00,-0.0001
2031.00,-0.0001
2030.00,-0.0002
2029.00,-0.0004
2028.00,-0.0006
2027.00,-0.0006
2026.00,-0.0005
2025.00,-0.0004
2024.00,-0.0003
2023.00,-0.0004
2022.00,-0.0006
2021.00,-0.0007
2020.00,-0.0008
2019.00,-0.0009
2018.00,-0.0008
2017.00,-0.0007
2016.00,-0.0007
2015.00,-0.0006
2014.00,-0.0006
2013.00,-0.0006
2012.00,-0.0005
2011.00,-0.0005
2010.00,-0.0004
2009.00,-0.0004
2008.00,-0.0003
2007.00,-0.0002
2006.00,-0.0001
2005.00,-0.0000
2004.00,0.0000
2003.00,-0.0000
2002.00,-0.0000
2001.00,0.0000
2000.00,0.0001
1999.00,0.0002
1998.00,0.0003
1997.00,0.0003
1996.00,0.0004
1995.00,0.0004
1994.00,0.0005
1993.00,0.0005
1992.00,0.0005
1991.00,0.0003
1990.00,0.0002
1989.00,-0.0000
1988.00,-0.0002
1987.00,-0.0003
1986.00,-0.0004
1985.00,-0.0003
1984.00,-0.0002
1983.00,-0.0001
1982.00,0.0000
1981.00,0.0001
1980.00,0.0001
1979.00,0.0001
1978.00,0.0001
1977.00,0.0002
1976.00,0.0002
1975.00,0.0003
1974.00,0.0003
1973.00,0.0002
1972.00,0.0001
1971.00,0.0000
1970.00,-0.0001
1969.00,-0.0002
1968.00,-0.0001
1967.00,-0.0001
1966.00,0.0001
1965.00,0.0002
1964.00,0.0002
1963.00,0.0001
1962.00,0.0001
1961.00,0.0000
1960.00,0.0000
1959.00,0.0002
1958.00,0.0003
1957.00,0.0005
1956.00,0.0007
1955.00,0.0008
1954.00,0.0008
1953.00,0.0008
1952.00,0.0008
1951.00,0.0007
1950.00,0.0007
1949.00,0.0007
1948.00,0.0008
1947.00,0.0009
1946.00,0.0010
1945.00,0.0011
1944.00,0.0010
1943.00,0.0009
1942.00,0.0008
1941.00,0.0007
1940.00,0.0006
1939.00,0.0006
1938.00,0.0006
1937.00,0.0006
1936.00,0.0006
1935.00,0.0006
1934.00,0.0007
1933.00,0.0006
1932.00,0.0006
1931.00,0.0006
1930.00,0.0006
1929.00,0.0007
1928.00,0.0008
1927.00,0.0009
1926.00,0.0010
1925.00,0.0010
1924.00,0.0010
1923.00,0.0010
1922.00,0.0009
1921.00,0.0008
1920.00,0.0008
1919.00,0.0008
1918.00,0.0008
1917.00,0.0009
1916.00,0.0009
1915.00,0.0009
1914.00,0.0008
1913.00,0.0007
1912.00,0.0006
1911.00,0.0007
1910.00,0.0007
1909.00,0.0009
1908.00,0.0010
1907.00,0.0010
1906.00,0.0009
1905.00,0.0009
1904.00,0.0008
1903.00,0.0008
1902.00,0.0007
1901.00,0.0007
1900.00,0.0006
1899.00,0.0006
1898.00,0.0007
1897.00,0.0008
1896.00,0.0009
1895.00,0.0009
1894.00,0.0009
1893.00,0.0009
1892.00,0.0009
1891.00,0.0009
1890.00,0.0009
1889.00,0.0009
1888.00,0.0010
1887.00,0.0010
1886.00,0.0011
1885.00,0.0011
1884.00,0.0011
1883.00,0.0011
1882.00,0.0010
1881.00,0.0010
1880.00,0.0010
1879.00,0.0010
1878.00,0.0010
1877.00,0.0011
1876.00,0.0011
1875.00,0.0011
1874.00,0.0011
1873.00,0.0011
1872.00,0.0012
1871.00,0.0012
1870.00,0.0012
1869.00,0.0013
1868.00,0.0013
1867.00,0.0013
1866.00,0.0013
1865.00,0.0013
1864.00,0.0013
1863.00,0.0013
1862.00,0.0013
1861.00,0.0012
1860.00,0.0011
1859.00,0.0010
1858.00,0.0010
1857.00,0.0010
1856.00,0.0010
1855.00,0.0010
1854.00,0.0010
1853.00,0.0011
1852.00,0.0011
1851.00,0.0011
1850.00,0.0011
1849.00,0.0010
1848.00,0.0010
1847.00,0.0010
1846.00,0.0010
1845.00,0.0010
1844.00,0.0011
1843.00,0.0011
1842.00,0.0011
1841.00,0.0012
1840.00,0.0012
1839.00,0.0012
1838.00,0.0011
1837.00,0.0011
1836.00,0.0011
1835.00,0.0011
1834.00,0.0011
1833.00,0.0011
1832.00,0.0011
1831.00,0.0011
1830.00,0.0012
1829.00,0.0012
1828.00,0.0012
1827.00,0.0012
1826.00,0.0012
1825.00,0.0011
1824.00,0.0011
1823.00,0.0010
1822.00,0.0010
1821.00,0.0009
1820.00,0.0010
1819.00,0.0010
1818.00,0.0011
1817.00,0.0012
1816.00,0.0013
1815.00,0.0013
1814.00,0.0013
1813.00,0.0012
1812.00,0.0012
1811.00,0.0012
1810.00,0.0012
1809.00,0.0012
1808.00,0.0012
1807.00,0.0012
1806.00,0.0012
1805.00,0.0012
1804.00,0.0013
1803.00,0.0013
1802.00,0.0013
1801.00,0.0013
1800.00,0.0013
1799.00,0.0013
1798.00,0.0014
1797.00,0.0014
1796.00,0.0014
1795.00,0.0014
1794.00,0.0013
1793.00,0.0013
1792.00,0.0013
1791.00,0.0013
1790.00,0.0014
1789.00,0.0014
1788.00,0.0014
1787.00,0.0014
1786.00,0.0014
1785.00,0.0014
1784.00,0.0014
1783.00,0.0014
1782.00,0.0014
1781.00,0.0014
1780.00,0.0014
1779.00,0.0014
1778.00,0.0013
1777.00,0.0013
1776.00,0.0013
1775.00,0.0013
1774.00,0.0013
1773.00,0.0013
1772.00,0.0013
1771.00,0.0013
1770.00,0.0013
1769.00,0.0013
1768.00,0.0013
1767.00,0.0013
1766.00,0.0013
1765.00,0.0014
1764.00,0.0014
1763.00,0.0014
1762.00,0.0014
1761.00,0.0013
1760.00,0.0013
1759.00,0.0013
1758.00,0.0013
1757.00,0.0013
1756.00,0.0013
1755.00,0.0013
1754.00,0.0013
1753.00,0.0013
1752.00,0.0013
1751.00,0.0013
1750.00,0.0014
1749.00,0.0014
1748.00,0.0014
1747.00,0.0014
1746.00,0.0014
1745.00,0.0013
1744.00,0.0014
1743.00,0.0014
1742.00,0.0014
1741.00,0.0015
1740.00,0.0015
1739.00,0.0015
1738.00,0.0015
1737.00,0.0014
1736.00,0.0014
1735.00,0.0014
1734.00,0.0014
1733.00,0.0014
1732.00,0.0014
1731.00,0.0014
1730.00,0.0014
1729.00,0.0014
1728.00,0.0014
1727.00,0.0014
1726.00,0.0014
1725.00,0.0013
1724.00,0.0013
1723.00,0.0014
1722.00,0.0014
1721.00,0.0015
1720.00,0.0015
1719.00,0.0016
1718.00,0.0016
1717.00,0.0016
1716.00,0.0015
1715.00,0.0015
1714.00,0.0015
1713.00,0.0015
1712.00,0.0015
1711.00,0.0015
1710.00,0.0015
1709.00,0.0015
1708.00,0.0016
1707.00,0.0016
1706.00,0.0016
1705.00,0.0015
1704.00,0.0015
1703.00,0.0015
1702.00,0.0015
1701.00,0.0015
1700.00,0.0015
1699.00,0.0015
1698.00,0.0015
1697.00,0.0015
1696.00,0.0015
1695.00,0.0014
1694.00,0.0014
1693.00,0.0014
1692.00,0.0014
1691.00,0.0014
1690.00,0.0014
1689.00,0.0014
1688.00,0.0014
1687.00,0.0014
1686.00,0.0013
1685.00,0.0013
1684.00,0.0012
1683.00,0.0013
1682.00,0.0013
1681.00,0.0014
1680.00,0.0014
1679.00,0.0015
1678.00,0.0015
1677.00,0.0015
1676.00,0.0015
1675.00,0.0015
1674.00,0.0015
1673.00,0.0015
1672.00,0.0015
1671.00,0.0016
1670.00,0.0016
1669.00,0.0015
1668.00,0.0014
1667.00,0.0014
1666.00,0.0013
1665.00,0.0013
1664.00,0.0014
1663.00,0.0014
1662.00,0.0015
1661.00,0.0015
1660.00,0.0016
1659.00,0.0016
1658.00,0.0016
1657.00,0.0016
1656.00,0.0016
1655.00,0.0016
1654.00,0.0016
1653.00,0.0016
1652.00,0.0016
1651.00,0.0016
1650.00,0.0016
1649.00,0.0016
1648.00,0.0015
1647.00,0.0015
1646.00,0.0015
1645.00,0.0015
1644.00,0.0015
1643.00,0.0015
1642.00,0.0016
1641.00,0.0016
1640.00,0.0016
1639.00,0.0016
1638.00,0.0016
1637.00,0.0016
1636.00,0.0016
1635.00,0.0016
1634.00,0.0016
1633.00,0.0016
1632.00,0.0016
1631.00,0.0016
1630.00,0.0016
1629.00,0.0016
1628.00,0.0016
1627.00,0.0016
1626.00,0.0016
1625.00,0.0016
1624.00,0.0016
1623.00,0.0016
1622.00,0.0016
1621.00,0.0016
1620.00,0.0016
1619.00,0.0016
1618.00,0.0016
1617.00,0.0016
1616.00,0.0016
1615.00,0.0017
1614.00,0.0017
1613.00,0.0017
1612.00,0.0017
1611.00,0.0017
1610.00,0.0017
1609.00,0.0017
1608.00,0.0017
1607.00,0.0017
1606.00,0.0017
1605.00,0.0016
1604.00,0.0016
1603.00,0.0016
1602.00,0.0016
1601.00,0.0017
1600.00,0.0017
1599.00,0.0018
1598.00,0.0018
1597.00,0.0018
1596.00,0.0017
1595.00,0.0017
1594.00,0.0016
1593.00,0.0016
1592.00,0.0016
1591.00,0.0016
1590.00,0.0016
1589.00,0.0016
1588.00,0.0016
1587.00,0.0016
1586.00,0.0016
1585.00,0.0016
1584.00,0.0016
1583.00,0.0016
1582.00,0.0016
1581.00,0.0016
1580.00,0.0016
1579.00,0.0017
1578.00,0.0017
1577.00,0.0016
1576.00,0.0016
1575.00,0.0015
1574.00,0.0015
1573.00,0.0015
1572.00,0.0015
1571.00,0.0015
1570.00,0.0015
1569.00,0.0015
1568.00,0.0015
1567.00,0.0015
1566.00,0.0015
1565.00,0.0015
1564.00,0.0015
1563.00,0.0016
1562.00,0.0016
1561.00,0.0016
1560.00,0.0015
1559.00,0.0015
1558.00,0.0015
1557.00,0.0015
1556.00,0.0015
1555.00,0.0015
1554.00,0.0015
1553.00,0.0015
1552.00,0.0015
1551.00,0.0015
1550.00,0.0015
1549.00,0.0015
1548.00,0.0015
1547.00,0.0015
1546.00,0.0015
1545.00,0.0015
1544.00,0.0015
1543.00,0.0016
1542.00,0.0016
1541.00,0.0015
1540.00,0.0015
1539.00,0.0014
1538.00,0.0014
1537.00,0.0014
1536.00,0.0015
1535.00,0.0015
1534.00,0.0015
1533.00,0.0015
1532.00,0.0015
1531.00,0.0015
1530.00,0.0015
1529.00,0.0015
1528.00,0.0014
1527.00,0.0014
1526.00,0.0014
1525.00,0.0015
1524.00,0.0016
1523.00,0.0017
1522.00,0.0017
1521.00,0.0017
1520.00,0.0016
1519.00,0.0016
1518.00,0.0016
1517.00,0.0015
1516.00,0.0015
1515.00,0.0015
1514.00,0.0015
1513.00,0.0014
1512.00,0.0014
1511.00,0.0014
1510.00,0.0014
1509.00,0.0014
1508.00,0.0014
1507.00,0.0014
1506.00,0.0014
1505.00,0.0014
1504.00,0.0014
1503.00,0.0013
1502.00,0.0013
1501.00,0.0013
1500.00,0.0013
1499.00,0.0013
1498.00,0.0013
1497.00,0.0014
1496.00,0.0014
1495.00,0.0014
1494.00,0.0015
1493.00,0.0015
1492.00,0.0016
1491.00,0.0016
1490.00,0.0016
1489.00,0.0016
1488.00,0.0016
1487.00,0.0016
1486.00,0.0016
1485.00,0.0016
1484.00,0.0016
1483.00,0.0016
1482.00,0.0016
1481.00,0.0016
1480.00,0.0016
1479.00,0.0015
1478.00,0.0015
1477.00,0.0015
1476.00,0.0015
1475.00,0.0015
1474.00,0.0016
1473.00,0.0016
1472.00,0.0016
1471.00,0.0015
1470.00,0.0015
1469.00,0.0015
1468.00,0.0015
1467.00,0.0015
1466.00,0.0016
1465.00,0.0016
1464.00,0.0016
1463.00,0.0016
1462.00,0.0016
1461.00,0.0017
1460.00,0.0017
1459.00,0.0017
1458.00,0.0017
1457.00,0.0017
1456.00,0.0018
1455.00,0.0018
1454.00,0.0019
1453.00,0.0020
1452.00,0.0020
1451.00,0.0021
1450.00,0.0022
1449.00,0.0022
1448.00,0.0023
1447.00,0.0023
1446.00,0.0024
1445.00,0.0024
1444.00,0.0023
1443.00,0.0023
1442.00,0.0023
1441.00,0.0022
1440.00,0.0022
1439.00,0.0021
1438.00,0.0020
1437.00,0.0019
1436.00,0.0019
1435.00,0.0019
1434.00,0.0020
1433.00,0.0021
1432.00,0.0021
1431.00,0.0021
1430.00,0.0021
1429.00,0.0022
1428.00,0.0022
1427.00,0.0022
1426.00,0.0023
1425.00,0.0024
1424.00,0.0025
1423.00,0.0026
1422.00,0.0027
1421.00,0.0028
1420.00,0.0029
1419.00,0.0031
1418.00,0.0033
1417.00,0.0035
1416.00,0.0036
1415.00,0.0037
1414.00,0.0038
1413.00,0.0038
1412.00,0.0038
1411.00,0.0039
1410.00,0.0038
1409.00,0.0038
1408.00,0.0037
1407.00,0.0036
1406.00,0.0035
1405.00,0.0035
1404.00,0.0035
1403.00,0.0035
1402.00,0.0035
1401.00,0.0034
1400.00,0.0033
1399.00,0.0033
1398.00,0.0032
1397.00,0.0031
1396.00,0.0029
1395.00,0.0028
1394.00,0.0027
1393.00,0.0025
1392.00,0.0024
1391.00,0.0024
1390.00,0.0023
1389.00,0.0022
1388.00,0.0021
1387.00,0.0021
1386.00,0.0020
1385.00,0.0020
1384.00,0.0020
1383.00,0.0019
1382.00,0.0019
1381.00,0.0019
1380.00,0.0018
1379.00,0.0018
1378.00,0.0017
1377.00,0.0017
1376.00,0.0017
1375.00,0.0017
1374.00,0.0017
1373.00,0.0017
1372.00,0.0017
1371.00,0.0017
1370.00,0.0017
1369.00,0.0017
1368.00,0.0017
1367.00,0.0017
1366.00,0.0017
1365.00,0.0017
1364.00,0.0016
1363.00,0.0016
1362.00,0.0016
1361.00,0.0016
1360.00,0.0016
1359.00,0.0015
1358.00,0.0015
1357.00,0.0015
1356.00,0.0015
1355.00,0.0015
1354.00,0.0015
1353.00,0.0015
1352.00,0.0015
1351.00,0.0015
1350.00,0.0015
1349.00,0.0014
1348.00,0.0014
1347.00,0.0015
1346.00,0.0015
1345.00,0.0015
1344.00,0.0015
1343.00,0.0016
1342.00,0.0016
1341.00,0.0016
1340.00,0.0016
1339.00,0.0016
1338.00,0.0015
1337.00,0.0015
1336.00,0.0015
1335.00,0.0015
1334.00,0.0016
1333.00,0.0016
1332.00,0.0016
1331.00,0.0016
1330.00,0.0016
1329.00,0.0016
1328.00,0.0016
1327.00,0.0016
1326.00,0.0016
1325.00,0.0017
1324.00,0.0017
1323.00,0.0017
1322.00,0.0017
1321.00,0.0017
1320.00,0.0017
1319.00,0.0017
1318.00,0.0016
1317.00,0.0017
1316.00,0.0017
1315.00,0.0017
1314.00,0.0017
1313.00,0.0017
1312.00,0.0018
1311.00,0.0018
1310.00,0.0019
1309.00,0.0019
1308.00,0.0019
1307.00,0.0019
1306.00,0.0019
1305.00,0.0019
1304.00,0.0019
1303.00,0.0019
1302.00,0.0019
1301.00,0.0019
1300.00,0.0020
1299.00,0.0020
1298.00,0.0020
1297.00,0.0020
1296.00,0.0021
1295.00,0.0021
1294.00,0.0022
1293.00,0.0023
1292.00,0.0023
1291.00,0.0023
1290.00,0.0023
1289.00,0.0024
1288.00,0.0025
1287.00,0.0026
1286.00,0.0028
1285.00,0.0029
1284.00,0.0030
1283.00,0.0031
1282.00,0.0032
1281.00,0.0034
1280.00,0.0035
1279.00,0.0038
1278.00,0.0041
1277.00,0.0044
1276.00,0.0048
1275.00,0.0052
1274.00,0.0058
1273.00,0.0065
1272.00,0.0075
1271.00,0.0087
1270.00,0.0104
1269.00,0.0126
1268.00,0.0153
1267.00,0.0185
1266.00,0.0223
1265.00,0.0264
1264.00,0.0305
1263.00,0.0344
1262.00,0.0378
1261.00,0.0404
1260.00,0.0419
1259.00,0.0424
1258.00,0.0419
1257.00,0.0405
1256.00,0.0385
1255.00,0.0360
1254.00,0.0332
1253.00,0.0302
1252.00,0.0271
1251.00,0.0239
1250.00,0.0208
1249.00,0.0178
1248.00,0.0152
1247.00,0.0130
1246.00,0.0112
1245.00,0.0098
1244.00,0.0087
1243.00,0.0078
1242.00,0.0070
1241.00,0.0065
1240.00,0.0060
1239.00,0.0057
1238.00,0.0054
1237.00,0.0051
1236.00,0.0049
1235.00,0.0048
1234.00,0.0047
1233.00,0.0046
1232.00,0.0045
1231.00,0.0045
1230.00,0.0044
1229.00,0.0044
1228.00,0.0044
1227.00,0.0044
1226.00,0.0045
1225.00,0.0046
1224.00,0.0046
1223.00,0.0047
1222.00,0.0048
1221.00,0.0049
1220.00,0.0049
1219.00,0.0050
1218.00,0.0051
1217.00,0.0052
1216.00,0.0054
1215.00,0.0055
1214.00,0.0057
1213.00,0.0058
1212.00,0.0059
1211.00,0.0060
1210.00,0.0062
1209.00,0.0063
1208.00,0.0065
1207.00,0.0066
1206.00,0.0067
1205.00,0.0069
1204.00,0.0070
1203.00,0.0071
1202.00,0.0072
1201.00,0.0073
1200.00,0.0074
1199.00,0.0075
1198.00,0.0076
1197.00,0.0077
1196.00,0.0078
1195.00,0.0079
1194.00,0.0080
1193.00,0.0081
1192.00,0.0081
1191.00,0.0082
1190.00,0.0083
1189.00,0.0084
1188.00,0.0084
1187.00,0.0085
1186.00,0.0085
1185.00,0.0085
1184.00,0.0085
1183.00,0.0085
1182.00,0.0085
1181.00,0.0085
1180.00,0.0085
1179.00,0.0085
1178.00,0.0086
1177.00,0.0086
1176.00,0.0086
1175.00,0.0087
1174.00,0.0087
1173.00,0.0087
1172.00,0.0088
1171.00,0.0088
1170.00,0.0088
1169.00,0.0089
1168.00,0.0089
1167.00,0.0089
1166.00,0.0090
1165.00,0.0090
1164.00,0.0090
1163.00,0.0090
1162.00,0.0091
1161.00,0.0091
1160.00,0.0091
1159.00,0.0092
1158.00,0.0092
1157.00,0.0093
1156.00,0.0093
1155.00,0.0094
1154.00,0.0094
1153.00,0.0095
1152.00,0.0096
1151.00,0.0097
1150.00,0.0098
1149.00,0.0100
1148.00,0.0101
1147.00,0.0103
1146.00,0.0105
1145.00,0.0107
1144.00,0.0109
1143.00,0.0111
1142.00,0.0113
1141.00,0.0116
1140.00,0.0118
1139.00,0.0121
1138.00,0.0123
1137.00,0.0126
1136.00,0.0129
1135.00,0.0132
1134.00,0.0135
1133.00,0.0138
1132.00,0.0141
1131.00,0.0145
1130.00,0.0149
1129.00,0.0153
1128.00,0.0158
1127.00,0.0163
1126.00,0.0169
1125.00,0.0175
1124.00,0.0181
1123.00,0.0187
1122.00,0.0194
1121.00,0.0202
1120.00,0.0211
1119.00,0.0220
1118.00,0.0229
1117.00,0.0239
1116.00,0.0249
1115.00,0.0259
1114.00,0.0270
1113.00,0.0282
1112.00,0.0294
1111.00,0.0306
1110.00,0.0318
1109.00,0.0330
1108.00,0.0343
1107.00,0.0356
1106.00,0.0370
1105.00,0.0384
1104.00,0.0399
1103.00,0.0413
1102.00,0.0427
1101.00,0.0441
1100.00,0.0455
1099.00,0.0468
1098.00,0.0482
1097.00,0.0496
1096.00,0.0510
1095.00,0.0523
1094.00,0.0537
1093.00,0.0549
1092.00,0.0562
1091.00,0.0575
1090.00,0.0586
1089.00,0.0597
1088.00,0.0607
1087.00,0.0616
1086.00,0.0624
1085.00,0.0632
1084.00,0.0640
1083.00,0.0646
1082.00,0.0652
1081.00,0.0656
1080.00,0.0660
1079.00,0.0663
1078.00,0.0666
1077.00,0.0669
1076.00,0.0672
1075.00,0.0675
1074.00,0.0677
1073.00,0.0678
1072.00,0.0678
1071.00,0.0678
1070.00,0.0678
1069.00,0.0677
1068.00,0.0676
1067.00,0.0675
1066.00,0.0674
1065.00,0.0672
1064.00,0.0670
1063.00,0.0669
1062.00,0.0667
1061.00,0.0665
1060.00,0.0663
1059.00,0.0660
1058.00,0.0657
1057.00,0.0655
1056.00,0.0652
1055.00,0.0649
1054.00,0.0647
1053.00,0.0644
1052.00,0.0642
1051.00,0.0639
1050.00,0.0635
1049.00,0.0632
1048.00,0.0628
1047.00,0.0626
1046.00,0.0623
1045.00,0.0622
1044.00,0.0620
1043.00,0.0620
1042.00,0.0620
1041.00,0.0620
1040.00,0.0620
1039.00,0.0621
1038.00,0.0621
1037.00,0.0623
1036.00,0.0625
1035.00,0.0628
1034.00,0.0632
1033.00,0.0636
1032.00,0.0640
1031.00,0.0646
1030.00,0.0651
1029.00,0.0657
1028.00,0.0664
1027.00,0.0671
1026.00,0.0679
1025.00,0.0687
1024.00,0.0696
1023.00,0.0705
1022.00,0.0714
1021.00,0.0723
1020.00,0.0731
1019.00,0.0739
1018.00,0.0745
1017.00,0.0748
1016.00,0.0750
1015.00,0.0748
1014.00,0.0744
1013.00,0.0736
1012.00,0.0724
1011.00,0.0708
1010.00,0.0687
1009.00,0.0662
1008.00,0.0634
1007.00,0.0603
1006.00,0.0571
1005.00,0.0538
1004.00,0.0506
1003.00,0.0474
1002.00,0.0443
1001.00,0.0414
1000.00,0.0386
999.00,0.0360
998.00,0.0336
997.00,0.0314
996.00,0.0293
995.00,0.0275
994.00,0.0258
993.00,0.0242
992.00,0.0228
991.00,0.0215
990.00,0.0204
989.00,0.0193
988.00,0.0184
987.00,0.0174
986.00,0.0166
985.00,0.0157
984.00,0.0150
983.00,0.0143
982.00,0.0138
981.00,0.0132
980.00,0.0127
979.00,0.0122
978.00,0.0118
977.00,0.0114
976.00,0.0110
975.00,0.0107
974.00,0.0104
973.00,0.0101
972.00,0.0098
971.00,0.0096
970.00,0.0093
969.00,0.0091
968.00,0.0089
967.00,0.0088
966.00,0.0086
965.00,0.0085
964.00,0.0083
963.00,0.0082
962.00,0.0080
961.00,0.0078
960.00,0.0077
959.00,0.0076
958.00,0.0075
957.00,0.0074
956.00,0.0073
955.00,0.0072
954.00,0.0071
953.00,0.0069
952.00,0.0068
951.00,0.0067
950.00,0.0065
949.00,0.0064
948.00,0.0063
947.00,0.0062
946.00,0.0061
945.00,0.0060
944.00,0.0059
943.00,0.0057
942.00,0.0056
941.00,0.0056
940.00,0.0056
939.00,0.0056
938.00,0.0055
937.00,0.0055
936.00,0.0055
935.00,0.0054
934.00,0.0054
933.00,0.0054
932.00,0.0055
931.00,0.0055
930.00,0.0055
929.00,0.0056
928.00,0.0057
927.00,0.0057
926.00,0.0058
925.00,0.0058
924.00,0.0058
923.00,0.0058
922.00,0.0059
921.00,0.0060
920.00,0.0062
919.00,0.0064
918.00,0.0066
917.00,0.0068
916.00,0.0069
915.00,0.0070
914.00,0.0071
913.00,0.0072
912.00,0.0074
911.00,0.0074
910.00,0.0075
909.00,0.0074
908.00,0.0073
907.00,0.0072
906.00,0.0072
905.00,0.0072
904.00,0.0072
903.00,0.0073
902.00,0.0074
901.00,0.0074
900.00,0.0074
899.00,0.0074
898.00,0.0074
897.00,0.0075
896.00,0.0076
895.00,0.0078
894.00,0.0080
893.00,0.0082
892.00,0.0085
891.00,0.0087
890.00,0.0090
889.00,0.0093
888.00,0.0096
887.00,0.0100
886.00,0.0104
885.00,0.0108
884.00,0.0112
883.00,0.0117
882.00,0.0123
881.00,0.0129
880.00,0.0136
879.00,0.0144
878.00,0.0153
877.00,0.0162
876.00,0.0171
875.00,0.0181
874.00,0.0192
873.00,0.0203
872.00,0.0215
871.00,0.0226
870.00,0.0237
869.00,0.0248
868.00,0.0257
867.00,0.0264
866.00,0.0269
865.00,0.0271
864.00,0.0272
863.00,0.0270
862.00,0.0267
861.00,0.0264
860.00,0.0260
859.00,0.0256
858.00,0.0254
857.00,0.0253
856.00,0.0253
855.00,0.0255
854.00,0.0258
853.00,0.0263
852.00,0.0270
851.00,0.0278
850.00,0.0287
849.00,0.0296
848.00,0.0304
847.00,0.0311
846.00,0.0318
845.00,0.0323
844.00,0.0327
843.00,0.0327
842.00,0.0325
841.00,0.0320
840.00,0.0312
839.00,0.0303
838.00,0.0293
837.00,0.0283
836.00,0.0274
835.00,0.0266
834.00,0.0261
833.00,0.0257
832.00,0.0255
831.00,0.0255
830.00,0.0257
829.00,0.0262
828.00,0.0271
827.00,0.0283
826.00,0.0298
825.00,0.0316
824.00,0.0337
823.00,0.0359
822.00,0.0380
821.00,0.0399
820.00,0.0416
819.00,0.0430
818.00,0.0444
817.00,0.0456
816.00,0.0468
815.00,0.0480
814.00,0.0493
813.00,0.0506
812.00,0.0522
811.00,0.0539
810.00,0.0560
809.00,0.0583
808.00,0.0608
807.00,0.0636
806.00,0.0664
805.00,0.0693
804.00,0.0723
803.00,0.0752
802.00,0.0780
801.00,0.0806
800.00,0.0830
